Date,Open,High,Low,Close,Volume,OpenInt
20081218,7.4303,7.4303,6.5161,6.5161,12031,0
20081219,6.5064,7.0899,6.4967,7.0899,12802,0
20081222,7.0899,7.0899,6.7593,6.8371,11583,0
20081223,6.7982,6.7982,6.7982,6.7982,211,0
20081229,6.8079,6.9635,6.8079,6.9538,3849,0
20081230,6.9635,7.0705,6.8079,6.9538,7647,0
20081231,7.051,7.0899,6.9927,6.9927,4781,0
20090105,7.6832,7.6832,6.8371,7.0024,2416,0
20090106,6.8468,7.4401,6.8079,7.4401,13641,0
20090107,7.2942,7.7804,7.0997,7.0997,44789,0
20090108,6.8565,6.9635,6.8371,6.9635,4199,0
20090112,6.9149,7.4109,6.9149,6.9927,1891,0
20090113,6.8273,7.3817,6.8273,7.3817,3371,0
20090114,7.3817,7.5762,7.051,7.479,17178,0
20090115,7.1969,7.1969,7.1969,7.1969,666,0
20090116,7.0219,7.372,7.0219,7.0997,1232,0
20090119,7.5276,7.5276,7.5276,7.5276,1,0
20090120,7.0024,7.2358,6.8662,7.2358,904,0
20090121,7.2455,7.2455,6.9538,6.9538,309,0
20090122,6.9051,7.0997,6.9051,7.0997,373,0
20090123,7.2261,7.2261,6.8176,7.1969,362,0
20090126,7.2261,7.2261,6.6912,6.7884,3274,0
20090127,6.7884,6.7884,6.6426,6.7495,1175,0
20090128,6.7884,6.7884,6.7884,6.7884,10,0
20090129,6.7106,6.7106,6.7106,6.7106,1086,0
20090130,6.6328,6.6328,6.555,6.6134,1985,0
20090202,6.7106,6.7106,5.7478,6.1174,7253,0
20090203,6.1271,6.1271,5.8353,5.8353,1062,0
20090204,5.8353,5.8353,5.5436,5.6603,2770,0
20090205,5.2518,5.7381,4.96,5.5825,14509,0
20090206,5.5825,6.7009,5.5825,5.9618,3906,0
20090209,5.6408,6.0007,5.6408,6.0007,3918,0
20090210,6.1466,6.3508,5.8353,6.3508,10787,0
20090211,6.4967,6.7009,6.3216,6.3605,7565,0
20090212,6.5161,6.5161,6.5161,6.5161,332,0
20090213,6.5161,6.5842,6.5161,6.5842,450,0
20090216,6.4189,6.5161,5.8353,5.8353,3394,0
20090217,5.6408,5.6408,5.2713,5.2713,5357,0
20090218,5.1448,5.1448,5.0378,5.1351,4860,0
20090219,5.2615,5.2615,5.2421,5.2421,959,0
20090220,5.2421,5.2421,5.2421,5.2421,10,0
20090223,5.0087,5.2226,5.0087,5.2226,1326,0
20090224,5.2421,5.7381,4.7266,5.7381,16946,0
20090225,5.5825,6.2244,5.5825,5.8353,2965,0
20090226,5.884,6.1174,5.884,6.1174,7455,0
20090227,5.8353,6.0298,5.8353,6.0298,1417,0
20090302,5.9034,5.9034,5.8742,5.8742,650,0
20090303,5.6408,5.7575,5.5338,5.6214,12781,0
20090304,5.4852,5.8256,5.4852,5.8256,895,0
20090305,5.8645,6.0785,5.7381,6.0785,2114,0
20090306,5.9326,6.0785,5.5436,6.0785,14195,0
20090309,5.7381,5.7381,5.7381,5.7381,1,0
20090310,5.7478,5.7478,5.7478,5.7478,391,0
20090311,5.7478,5.8353,5.7478,5.8353,6,0
20090312,5.7478,5.8353,5.7478,5.8353,636,0
20090313,5.7381,6.6037,5.7381,6.6037,6270,0
20090316,5.952,6.3702,5.952,6.2244,2106,0
20090317,6.6037,6.6037,6.4189,6.4189,390,0
20090318,6.6037,6.6037,6.5356,6.5648,1050,0
20090319,6.5453,6.7106,6.5453,6.7106,104,0
20090320,6.7884,6.7884,6.7884,6.7884,31,0
20090323,6.8565,7.1969,6.7593,7.1969,1395,0
20090324,7.2261,7.265,7.1969,7.1969,899,0
20090325,7.2942,7.2942,7.1483,7.1483,342,0
20090326,7.4887,7.4887,7.4887,7.4887,2,0
20090327,7.4887,7.4887,7.3914,7.3914,53,0
20090330,7.3914,7.3914,7.3914,7.3914,2,0
20090331,7.3914,7.3914,7.3914,7.3914,2,0
20090401,7.3914,7.3914,7.0024,7.0024,2,0
20090402,7.0997,7.4887,7.0997,7.4887,373,0
20090403,7.3914,7.4887,7.0997,7.4887,2356,0
20090406,7.4887,7.6637,7.4887,7.5179,3871,0
20090407,7.5859,7.6832,7.5665,7.5859,3521,0
20090408,7.5859,7.6832,7.5276,7.6832,6343,0
20090409,7.7318,8.0722,7.6832,8.0722,9720,0
20090414,8.0722,8.0722,7.7318,7.7318,3851,0
20090415,7.6832,7.7707,7.6832,7.7707,3737,0
20090416,7.6151,8.0722,7.6151,8.0625,6567,0
20090417,7.868,8.0722,7.868,8.0722,303,0
20090420,8.0236,8.0236,7.5859,7.6346,2617,0
20090421,7.6443,7.8777,7.6443,7.6832,688,0
20090422,7.6832,8.3154,7.6832,8.3154,7254,0
20090423,8.364,8.86,8.364,8.8114,8176,0
20090424,8.9378,9.1226,8.8114,9.0934,5321,0
20090427,9.142,9.142,8.364,8.8016,2611,0
20090428,9.1809,12.05,9.1809,11.184,32897,0
20090429,12.527,12.527,11.184,11.641,45008,0
20090430,11.661,11.661,11.184,11.476,15279,0
20090504,11.661,11.661,11.282,11.476,8806,0
20090505,11.68,11.855,11.671,11.671,4141,0
20090506,11.671,11.671,11.622,11.622,3551,0
20090507,11.632,11.632,11.184,11.476,8705,0
20090508,11.194,11.359,11.194,11.321,7930,0
20090511,11.466,11.768,11.466,11.768,19732,0
20090512,11.768,12.04,11.671,11.671,2702,0
20090513,11.671,11.671,11.136,11.136,6325,0
20090514,11.087,11.087,11.087,11.087,103,0
20090515,11.194,11.194,10.795,10.795,3695,0
20090518,11.039,11.466,11.039,11.184,1724,0
20090519,11.476,11.515,11.476,11.476,1542,0
20090520,11.671,11.671,11.641,11.671,8480,0
20090521,11.379,11.758,11.194,11.748,27763,0
20090522,11.748,11.768,11.525,11.768,9219,0
20090525,11.904,11.904,11.671,11.768,2810,0
20090526,11.535,11.865,11.535,11.855,37341,0
20090527,11.885,11.885,11.69,11.69,1926,0
20090528,11.671,11.7,11.671,11.7,16985,0
20090529,11.787,11.817,11.719,11.817,1511,0
20090601,11.817,12.449,11.768,12.157,8008,0
20090602,12.42,12.507,12.157,12.157,4339,0
20090603,12.196,12.468,12.196,12.215,2483,0
20090604,12.303,12.497,12.254,12.497,1432,0
20090605,12.565,12.604,12.546,12.546,2378,0
20090608,12.546,12.643,12.449,12.643,1693,0
20090609,12.643,13.567,12.643,13.567,4143,0
20090610,13.616,14.102,13.616,14.083,4421,0
20090612,13.246,14.394,13.246,14.394,321,0
20090615,13.626,13.908,13.421,13.908,2764,0
20090616,13.908,13.908,13.421,13.908,1119,0
20090617,14.19,14.19,13.519,14.053,936,0
20090618,14.015,14.015,13.509,13.509,1733,0
20090619,13.227,13.227,12.546,12.779,4672,0
20090622,13.081,13.081,12.643,13.032,4728,0
20090623,12.157,12.935,12.157,12.643,1506,0
20090624,12.546,12.546,12.157,12.449,7782,0
20090625,12.449,12.74,12.449,12.449,1679,0
20090626,12.731,12.731,12.546,12.711,2610,0
20090629,12.731,12.731,12.4,12.4,2463,0
20090630,12.449,14.452,12.264,14.102,28339,0
20090701,13.616,14.384,13.616,14.384,4499,0
20090702,14.384,14.384,13.723,14.287,288,0
20090703,14.297,14.297,13.616,13.966,714,0
20090706,13.616,14.092,13.431,14.092,1060,0
20090707,13.616,14.19,13.421,13.781,1304,0
20090708,13.616,13.616,13.324,13.324,1033,0
20090709,13.616,13.956,13.324,13.81,515,0
20090710,13.801,13.81,13.528,13.616,925,0
20090713,14.083,14.083,13.762,13.81,739,0
20090714,13.664,13.664,13.664,13.664,2179,0
20090715,13.616,13.616,13.13,13.616,686,0
20090716,13.139,13.995,13.139,13.995,1615,0
20090717,13.664,13.674,13.664,13.674,1417,0
20090720,13.995,13.995,13.713,13.956,364,0
20090721,13.956,14.491,13.956,14.199,25696,0
20090722,14.442,14.491,14.433,14.442,2427,0
20090723,14.452,14.452,14.102,14.442,4218,0
20090724,14.452,14.452,14.442,14.452,3619,0
20090727,14.452,14.452,13.859,14.345,3999,0
20090728,14.345,14.345,13.908,14.335,432,0
20090729,13.674,14.335,13.674,14.335,1419,0
20090730,14.335,14.335,13.742,14.326,609,0
20090731,14.102,14.102,13.859,13.859,4808,0
20090803,14.005,14.005,13.567,13.567,113,0
20090804,13.616,14.102,13.616,13.713,1258,0
20090805,13.694,13.81,13.694,13.81,2011,0
20090806,13.81,14.102,13.81,14.102,1847,0
20090807,13.869,14.102,13.869,14.102,7595,0
20090810,14.248,14.326,14.248,14.326,5661,0
20090811,14.005,15.075,14.005,15.075,4648,0
20090812,14.977,14.977,14.394,14.977,3831,0
20090813,14.968,14.968,14.627,14.627,8340,0
20090814,14.968,14.968,14.588,14.637,981,0
20090817,14.598,15.026,14.345,15.026,1333,0
20090818,15.026,15.075,14.355,15.075,1786,0
20090819,14.929,15.075,14.929,15.075,1006,0
20090820,15.464,16.339,15.172,16.339,1514,0
20090821,16.952,17.078,16.952,17.078,572,0
20090824,17.117,17.117,16.193,16.251,1456,0
20090825,16.582,17.876,16.582,17.876,1068,0
20090826,18.381,19.539,17.856,18.965,7715,0
20090827,18.965,19.062,17.71,17.866,32608,0
20090828,18.479,19.441,17.895,19.441,1733,0
20090831,19.441,19.441,18.284,18.965,6206,0
20090901,18.965,19.529,18.527,18.965,2968,0
20090902,18.576,18.576,17.506,17.749,3008,0
20090903,17.749,17.749,17.409,17.506,930,0
20090904,17.603,17.603,17.487,17.506,2673,0
20090907,17.117,17.117,17.02,17.029,2801,0
20090908,17.127,17.895,17.127,17.895,7859,0
20090909,18.381,19.257,17.895,17.895,499,0
20090910,18.965,18.965,17.049,17.117,4613,0
20090911,17.117,17.292,16.757,16.757,426,0
20090914,17.457,17.457,16.738,16.738,2023,0
20090915,16.738,17.341,16.738,17.341,824,0
20090916,17.506,17.681,17.341,17.341,1630,0
20090917,17.506,17.603,17.506,17.603,1173,0
20090918,17.506,17.506,17.02,17.214,2422,0
20090921,17.506,17.506,17.506,17.506,103,0
20090922,17.409,17.506,17.409,17.506,304,0
20090923,17.117,17.117,17.117,17.117,283,0
20090924,16.971,17.409,16.777,17.409,14094,0
20090925,17.117,17.117,16.825,16.825,45884,0
20090928,16.436,16.825,16.193,16.339,1967,0
20090929,16.047,16.047,15.999,16.047,1719,0
20090930,16.047,16.047,16.047,16.047,8791,0
20091001,15.658,16.047,15.571,15.58,9195,0
20091002,15.551,15.58,15.541,15.58,592,0
20091005,15.58,15.58,15.58,15.58,524,0
20091006,15.707,16.436,15.707,16.436,1080,0
20091007,16.533,16.971,16.533,16.631,255,0
20091008,16.825,16.825,16.631,16.631,505,0
20091009,17.02,17.302,17.02,17.253,1144,0
20091012,17.214,17.214,17.214,17.214,229,0
20091013,17.224,17.496,17.224,17.496,263,0
20091014,17.496,17.496,17.311,17.311,5625,0
20091015,17.506,17.506,17.409,17.496,76,0
20091016,17.496,17.496,17.409,17.409,4238,0
20091019,17.409,17.496,17.02,17.409,4005,0
20091020,17.02,17.02,15.853,16.922,1321,0
20091021,15.658,16.825,15.658,16.242,2296,0
20091022,16.242,16.533,16.242,16.533,280,0
20091023,16.164,16.164,16.164,16.164,7066,0
20091026,16.533,16.533,15.814,15.814,135,0
20091027,15.561,15.755,15.561,15.678,3763,0
20091028,15.366,15.804,15.366,15.707,477,0
20091029,15.415,15.707,15.415,15.687,17331,0
20091030,15.687,16.524,15.687,16.524,545,0
20091102,16.533,16.533,16.242,16.242,2141,0
20091103,16.193,16.193,16.193,16.193,20,0
20091104,16.193,16.339,16.193,16.339,574,0
20091105,16.417,16.417,16.008,16.008,1236,0
20091106,16.203,16.203,15.658,15.658,524,0
20091109,15.853,15.853,15.658,15.658,205,0
20091110,15.94,15.94,15.464,15.561,8719,0
20091112,15.658,15.707,15.541,15.541,9324,0
20091113,15.366,15.561,15.366,15.561,11395,0
20091116,15.755,15.755,15.415,15.561,1108,0
20091117,15.366,15.366,15.366,15.366,66,0
20091118,15.94,15.95,15.551,15.551,105,0
20091119,15.561,15.561,15.551,15.551,1701,0
20091120,15.551,15.551,15.366,15.366,584,0
20091123,15.561,15.561,15.561,15.561,21,0
20091124,15.366,15.561,15.269,15.561,706,0
20091125,15.561,15.561,15.561,15.561,219,0
20091126,15.561,15.561,15.075,15.075,335,0
20091127,15.551,15.551,14.686,14.686,691,0
20091130,14.88,15.561,14.88,15.561,639,0
20091201,15.561,15.561,15.551,15.551,766,0
20091202,15.551,15.551,14.598,14.88,4910,0
20091203,15.308,15.551,15.123,15.123,1110,0
20091204,14.929,15.123,14.929,15.123,37,0
20091207,15.026,15.123,15.026,15.123,397,0
20091208,15.123,15.172,14.783,14.783,4300,0
20091209,14.88,14.88,14.54,14.54,3012,0
20091210,14.54,14.588,14.491,14.491,1754,0
20091211,14.822,14.822,14.394,14.559,6443,0
20091214,14.394,14.53,14.394,14.53,5398,0
20091215,14.442,14.442,13.956,14.199,3168,0
20091216,14.384,14.394,13.966,13.966,7562,0
20091217,14.394,14.394,13.373,13.801,4179,0
20091218,13.762,14.89,13.762,14.588,10170,0
20091221,14.977,15.366,14.793,15.25,226319,0
20091222,15.464,15.551,15.259,15.347,21672,0
20091223,15.551,15.551,14.841,14.841,2960,0
20091228,14.763,14.763,14.54,14.686,1639,0
20091229,15.22,15.551,15.22,15.464,1252,0
20091230,15.561,15.95,15.366,15.561,4224,0
20091231,15.755,15.755,15.075,15.075,10119,0
20100104,15.464,15.464,15.172,15.366,16314,0
20100105,15.541,15.561,15.415,15.415,22080,0
20100106,15.425,15.561,15.318,15.415,5912,0
20100107,15.318,15.347,15.201,15.347,1152,0
20100108,15.415,15.561,15.415,15.464,3897,0
20100111,15.755,15.755,15.366,15.561,15691,0
20100112,15.755,15.755,14.929,15.551,6634,0
20100113,15.522,15.522,15.357,15.357,333,0
20100114,15.366,15.366,15.075,15.075,795,0
20100115,15.094,15.61,14.938,15.61,3380,0
20100118,15.464,15.785,15.464,15.561,663,0
20100119,15.755,15.804,15.512,15.804,5314,0
20100120,15.804,15.804,15.561,15.746,1358,0
20100121,15.804,15.804,15.318,15.512,2196,0
20100122,15.512,15.512,15.084,15.084,274,0
20100125,15.172,15.58,15.172,15.23,4470,0
20100126,15.23,15.23,15.23,15.23,1190,0
20100127,15.551,15.551,15.23,15.23,2593,0
20100128,15.327,15.571,15.084,15.571,5524,0
20100129,15.561,15.561,15.561,15.561,118,0
20100201,14.929,15.61,14.919,15.61,3965,0
20100202,15.561,15.561,15.561,15.561,16248,0
20100203,15.561,15.61,15.561,15.61,2479,0
20100204,15.61,15.61,15.075,15.075,3757,0
20100205,15.075,15.464,15.075,15.464,3800,0
20100208,15.464,15.464,15.084,15.366,28607,0
20100209,15.561,15.561,15.551,15.561,720,0
20100210,15.561,15.707,15.172,15.707,3230,0
20100211,15.707,15.707,14.686,15.561,1266,0
20100212,15.6,15.6,15.561,15.6,530,0
20100215,15.6,15.755,15.075,15.755,2879,0
20100216,15.853,15.95,15.853,15.95,599,0
20100217,15.95,16.533,15.755,16.533,4107,0
20100218,16.874,17.166,16.874,16.874,19026,0
20100219,16.874,16.874,16.874,16.874,1131,0
20100222,17.117,17.117,16.533,16.757,813,0
20100223,16.728,16.728,16.631,16.728,1027,0
20100224,16.971,17.457,16.436,17.02,1848,0
20100225,17.438,17.457,16.971,17.457,1581,0
20100226,16.543,17.457,16.543,17.457,126510,0
20100301,17.302,17.302,17.166,17.292,10365,0
20100302,16.339,17.36,16.339,17.292,12322,0
20100303,17.457,17.457,16.825,17.02,2336,0
20100304,16.825,17.652,16.825,17.506,2784,0
20100305,17.788,17.788,17.506,17.506,420,0
20100308,17.506,18.09,16.874,18.09,58891,0
20100309,17.71,18.479,17.701,18.479,32980,0
20100310,18.43,18.43,18.265,18.43,27880,0
20100311,18.43,18.77,18.381,18.624,40916,0
20100312,18.624,18.624,18.479,18.624,2279,0
20100315,18.624,18.624,18.479,18.479,302,0
20100316,18.751,18.751,18.751,18.751,220,0
20100317,18.906,19.091,18.819,18.819,46753,0
20100318,19.257,19.257,18.683,18.77,1853,0
20100319,18.284,18.43,18.284,18.381,1500,0
20100322,18.381,18.381,17.652,17.652,373,0
20100323,17.652,17.652,16.728,16.728,775,0
20100324,16.728,16.728,16.193,16.436,4852,0
20100325,16.679,16.679,16.339,16.67,2094,0
20100326,16.825,17.253,16.825,16.874,2395,0
20100329,16.728,18.43,16.728,17.652,22912,0
20100330,18.333,18.663,17.905,18.43,950,0
20100331,18.43,18.663,18.381,18.43,6628,0
20100401,18.479,18.663,18.187,18.663,13153,0
20100406,18.041,18.576,18.041,18.479,5281,0
20100407,17.992,18.537,17.214,18.479,6126,0
20100408,18.605,18.605,17.895,18.479,4513,0
20100409,18.479,18.479,18.479,18.479,5479,0
20100412,18.527,18.527,17.944,17.944,4036,0
20100413,17.506,17.749,17.214,17.73,533,0
20100414,17.311,18.138,17.311,18.119,6193,0
20100415,18.479,18.479,17.594,17.603,7646,0
20100416,17.311,17.311,17.311,17.311,1437,0
20100419,17.02,17.02,16.533,16.533,6860,0
20100420,16.582,17.02,16.582,17.02,9962,0
20100421,16.679,17.117,16.485,16.533,3149,0
20100422,16.446,16.971,16.446,16.631,1015,0
20100423,16.631,17.506,16.631,17.506,889,0
20100426,17.506,17.506,16.971,17.311,549,0
20100427,17.117,17.117,16.543,16.922,941,0
20100428,16.339,16.436,16.29,16.29,2372,0
20100429,17.506,17.506,15.853,16.135,1328,0
20100430,16.144,16.193,15.853,15.853,729,0
20100504,15.901,15.901,15.561,15.561,6237,0
20100505,15.648,16.242,15.648,15.853,617,0
20100506,15.853,16.242,15.853,16.242,1197,0
20100507,15.853,15.853,15.707,15.755,1917,0
20100510,16.242,16.485,15.853,15.853,2199,0
20100511,15.853,16.047,15.853,16.018,37782,0
20100512,15.999,15.999,15.853,15.853,3961,0
20100513,16.388,16.388,15.318,15.561,10233,0
20100514,15.561,15.561,14.88,15.123,2269,0
20100517,15.22,15.22,14.987,14.987,1006,0
20100518,15.444,15.454,14.977,15.444,5607,0
20100519,15.036,15.415,14.968,15.415,11414,0
20100520,15.532,15.532,14.831,14.831,2675,0
20100521,14.588,14.588,13.908,14.588,1443,0
20100524,14.297,14.297,13.927,13.927,8131,0
20100525,13.908,14.005,13.519,13.519,1471,0
20100526,14.394,14.394,13.839,13.839,1171,0
20100527,14.053,14.053,13.421,13.421,1479,0
20100528,13.81,14.384,13.81,14.199,2056,0
20100531,14.209,14.248,14.209,14.219,168,0
20100601,14.569,15.026,14.199,14.209,6026,0
20100602,14.588,14.588,14.209,14.209,1374,0
20100604,14.248,14.686,14.248,14.686,90,0
20100607,14.783,15.026,14.783,14.793,1645,0
20100608,14.802,14.802,14.802,14.802,810,0
20100609,15.075,15.075,14.608,14.608,759,0
20100610,14.345,14.676,14.199,14.676,4420,0
20100611,14.676,14.676,14.676,14.676,300,0
20100614,14.306,14.588,14.199,14.209,2969,0
20100615,14.199,14.297,14.199,14.297,349,0
20100616,14.588,15.026,14.199,14.199,4722,0
20100617,14.219,14.248,14.199,14.248,737,0
20100618,14.199,14.199,14.199,14.199,229,0
20100621,14.199,14.199,14.199,14.199,4279,0
20100622,14.199,14.199,14.199,14.199,3173,0
20100623,14.676,14.676,14.199,14.199,742,0
20100624,14.199,14.199,14.199,14.199,3066,0
20100625,14.491,14.676,14.151,14.676,105149,0
20100628,14.297,14.297,14.219,14.219,891,0
20100629,14.219,14.219,14.199,14.199,3405,0
20100630,14.199,14.199,14.199,14.199,2018,0
20100701,14.199,14.199,14.199,14.199,53,0
20100702,14.199,14.501,14.199,14.501,2883,0
20100705,14.491,14.501,14.491,14.501,587,0
20100706,14.52,15.211,14.52,14.734,55633,0
20100707,14.744,15.172,14.744,15.172,25721,0
20100708,15.172,15.172,14.977,15.075,697,0
20100709,15.658,16.582,15.658,16.047,7135,0
20100712,16.728,16.728,16.339,16.679,4666,0
20100713,16.728,16.913,16.679,16.913,11365,0
20100714,17.02,17.02,16.777,16.971,2542,0
20100715,16.971,17.117,16.971,17.117,2101,0
20100716,17.136,17.156,17.136,17.146,556,0
20100719,17.117,17.263,17.02,17.205,1027,0
20100720,17.214,17.214,16.922,16.922,955,0
20100721,16.825,16.825,16.738,16.777,1838,0
20100722,16.777,16.777,16.144,16.709,852,0
20100723,16.728,16.825,16.709,16.777,748,0
20100726,17.253,17.253,16.922,16.922,1714,0
20100727,17.117,17.156,17.117,17.146,1627,0
20100728,17.263,17.263,17.146,17.263,1815,0
20100729,17.311,17.399,17.214,17.311,3621,0
20100730,17.146,17.399,17.146,17.302,546,0
20100802,17.117,17.195,17.02,17.195,1831,0
20100803,17.311,17.311,17.302,17.302,2133,0
20100804,17.311,17.38,17.282,17.38,620,0
20100805,17.409,17.409,17.214,17.409,879,0
20100806,17.37,17.37,17.214,17.36,4539,0
20100809,17.311,17.311,17.02,17.068,1137,0
20100810,17.263,17.263,17.068,17.214,687,0
20100811,17.156,17.156,16.971,17.117,924,0
20100812,17.136,17.136,16.971,16.971,748,0
20100813,17.117,17.117,16.533,16.699,2509,0
20100816,16.699,16.699,16.533,16.533,1809,0
20100817,16.388,16.524,16.047,16.524,908,0
20100818,16.524,16.524,16.524,16.524,169,0
20100819,16.961,16.961,16.961,16.961,10,0
20100820,17.253,17.253,16.728,16.728,182,0
20100823,16.533,16.533,16.339,16.339,286,0
20100824,16.358,16.358,15.707,15.717,4841,0
20100825,15.658,15.658,15.658,15.658,360,0
20100826,15.561,15.853,15.561,15.853,4009,0
20100827,15.853,16.436,15.853,16.436,640,0
20100830,16.533,16.533,16.144,16.533,187,0
20100831,16.339,16.913,15.901,16.913,5171,0
20100901,16.815,16.815,16.096,16.796,427,0
20100902,16.806,16.806,16.339,16.728,132,0
20100903,16.806,16.806,16.533,16.631,843,0
20100906,16.815,16.815,16.777,16.777,118,0
20100907,16.728,16.728,16.242,16.242,3088,0
20100908,16.144,16.592,16.144,16.582,324,0
20100909,16.096,16.485,16.047,16.436,334,0
20100910,16.436,16.436,15.979,15.979,2062,0
20100913,15.96,15.96,15.95,15.96,3714,0
20100914,15.901,15.901,15.561,15.561,2882,0
20100915,15.366,15.561,15.357,15.366,2294,0
20100916,15.366,15.94,15.366,15.94,275,0
20100917,16.018,16.018,15.979,15.979,46,0
20100920,15.94,16.213,15.512,16.213,3949,0
20100921,16.242,16.436,15.96,16.339,3095,0
20100922,16.436,16.436,15.512,16.388,7983,0
20100923,16.232,16.232,15.512,16.115,2856,0
20100924,16.329,16.329,15.561,16.319,621,0
20100927,16.329,16.329,15.571,16.047,609,0
20100928,16.242,16.242,15.561,16.028,3174,0
20100929,16.028,16.028,15.561,15.95,1700,0
20100930,15.561,16.242,15.561,16.242,2819,0
20101001,16.436,16.436,15.561,16.135,1177,0
20101004,16.242,16.242,15.532,15.843,4818,0
20101005,15.901,15.901,15.561,15.901,671,0
20101006,15.901,16.631,15.561,16.29,6244,0
20101007,16.485,16.485,16.417,16.417,9,0
20101008,16.339,16.533,16.242,16.533,846,0
20101011,16.689,16.689,15.717,16.485,440,0
20101012,16.533,16.533,15.561,15.911,1920,0
20101013,15.619,16.047,15.619,15.95,650,0
20101014,16.086,16.086,15.571,15.93,3164,0
20101015,15.911,15.911,15.911,15.911,1,0
20101018,15.93,15.93,15.561,15.853,4671,0
20101019,15.853,15.853,15.561,15.853,3543,0
20101020,15.853,15.853,15.561,15.561,42921,0
20101021,15.561,15.853,15.415,15.794,5525,0
20101022,15.794,15.794,15.561,15.775,837,0
20101025,15.794,15.794,15.366,15.366,1818,0
20101026,15.561,15.561,15.366,15.551,1066,0
20101027,15.561,15.58,15.376,15.571,3280,0
20101028,15.697,15.697,15.473,15.697,567,0
20101029,15.697,15.697,15.376,15.697,1356,0
20101102,15.755,15.989,15.717,15.804,3652,0
20101103,16.047,16.533,16.047,16.524,6864,0
20101104,16.699,16.874,16.543,16.874,3460,0
20101105,16.922,16.922,16.533,16.679,1214,0
20101108,16.679,16.815,16.144,16.144,3337,0
20101109,16.592,17.409,16.592,17.146,27512,0
20101110,18.284,18.634,17.944,18.09,64045,0
20101112,17.992,18.08,17.555,17.798,6295,0
20101115,17.788,17.788,17.739,17.778,1347,0
20101116,17.778,17.778,17.506,17.603,10226,0
20101117,17.428,17.516,17.409,17.467,1268,0
20101118,17.409,17.701,17.224,17.525,2196,0
20101119,17.555,17.564,17.409,17.409,3003,0
20101122,17.477,17.603,17.311,17.331,872,0
20101123,17.331,17.331,16.582,17.059,3166,0
20101124,17.506,17.71,17.506,17.574,10711,0
20101125,17.992,17.992,17.506,17.506,8283,0
20101126,17.594,17.603,17.428,17.603,8566,0
20101129,17.798,17.963,17.555,17.555,963,0
20101130,17.555,17.555,17.078,17.506,2432,0
20101201,17.555,17.555,16.728,17.253,311291,0
20101202,17.487,17.603,17.253,17.38,2056,0
20101203,17.409,17.506,17.37,17.506,905,0
20101206,17.506,17.652,17.37,17.409,2318,0
20101207,17.603,17.603,17.428,17.428,1155,0
20101208,17.506,17.506,17.263,17.263,366,0
20101209,17.399,17.399,17.195,17.253,324,0
20101210,17.195,17.214,16.825,16.961,5792,0
20101213,17.01,17.02,16.981,16.981,401,0
20101214,17.117,17.506,16.922,17.506,1529,0
20101215,17.701,17.701,17.175,17.175,6907,0
20101216,17.175,17.409,17.117,17.409,1164,0
20101217,17.409,17.409,17.117,17.166,1224,0
20101220,17.214,17.292,17.049,17.292,889,0
20101221,17.311,17.311,17.117,17.175,4264,0
20101222,17.282,17.282,17.01,17.253,2707,0
20101223,17.263,17.263,17,17.039,754,0
20101227,17.263,17.263,16.932,17.078,176,0
20101228,16.922,17.263,16.922,17.263,1575,0
20101229,17.263,17.263,17.068,17.253,1734,0
20101230,17.263,17.701,17.263,17.701,11955,0
20101231,17.691,17.992,17.642,17.963,18224,0
20110103,17.983,17.983,17.311,17.798,1472,0
20110104,17.788,17.788,17.506,17.701,664,0
20110105,17.642,17.798,17.36,17.798,1271,0
20110107,17.681,17.798,17.681,17.749,1140,0
20110110,17.992,17.992,17.603,17.603,1416,0
20110111,17.555,17.555,17.409,17.506,607,0
20110112,17.428,17.506,17.428,17.506,1556,0
20110113,17.506,17.603,17.409,17.409,1117,0
20110114,17.409,17.496,16.786,16.825,3148,0
20110117,16.845,17.039,16.845,16.932,7047,0
20110118,17.146,17.166,16.845,16.845,3523,0
20110119,16.922,16.922,16.047,16.533,4215,0
20110120,16.514,16.66,16.339,16.631,910,0
20110121,16.533,16.864,16.533,16.825,1256,0
20110124,16.864,16.864,16.582,16.64,746,0
20110125,16.631,16.825,16.543,16.543,2179,0
20110126,16.533,16.543,16.485,16.543,2063,0
20110127,16.397,16.806,16.397,16.631,4403,0
20110128,16.631,16.845,16.631,16.728,6772,0
20110131,15.853,16.679,15.853,16.611,2915,0
20110201,16.718,16.718,16.29,16.602,2453,0
20110202,16.621,16.864,16.456,16.611,4627,0
20110203,16.475,16.845,16.475,16.533,1024,0
20110204,16.533,16.543,16.533,16.533,1067,0
20110207,16.631,17.457,16.631,17.457,2620,0
20110208,17.506,17.506,17.37,17.37,392,0
20110209,17.37,17.37,16.728,17.117,2917,0
20110210,17.117,17.37,16.825,17.36,1889,0
20110211,16.971,17.311,16.242,17.311,4622,0
20110214,17.409,17.409,16.777,17.185,1583,0
20110215,17.389,17.389,16.981,16.981,762,0
20110216,16.922,16.922,16.777,16.777,538,0
20110217,16.631,16.777,16.592,16.777,1990,0
20110218,16.679,16.777,16.631,16.777,1134,0
20110221,16.65,16.757,16.65,16.728,2891,0
20110222,16.728,16.777,16.728,16.728,3124,0
20110223,16.728,17.117,16.728,16.981,83787,0
20110224,17.117,17.331,17.107,17.214,764,0
20110225,17.214,17.214,17.136,17.156,113,0
20110228,17.214,17.214,16.971,17.185,3418,0
20110301,17.195,17.195,16.884,17.02,838,0
20110302,17.166,17.38,16.971,17.38,13660,0
20110303,17.36,17.506,17.029,17.506,35867,0
20110304,17.457,17.73,17.457,17.73,12760,0
20110307,17.749,17.973,17.516,17.846,74576,0
20110308,18.041,18.09,17.846,17.944,10626,0
20110309,17.983,18.021,17.827,17.953,13481,0
20110310,17.924,17.924,17.555,17.662,1290,0
20110311,17.603,17.603,17.224,17.263,2233,0
20110314,17.214,17.555,17.214,17.555,1401,0
20110315,17.146,17.788,17.146,17.788,1343,0
20110316,17.914,17.914,17.817,17.817,559,0
20110317,17.944,17.944,17.817,17.817,1173,0
20110318,17.944,17.944,17.652,17.652,853,0
20110321,17.506,17.701,17.506,17.701,62,0
20110322,17.817,18.177,17.817,18.021,9877,0
20110323,18.041,18.041,17.944,18.041,611,0
20110324,18.07,18.07,17.749,17.749,2187,0
20110325,17.749,17.846,17.457,17.846,6864,0
20110328,17.846,17.905,17.798,17.798,1135,0
20110329,17.876,17.895,17.516,17.885,6006,0
20110330,17.895,17.895,17.846,17.846,1834,0
20110331,17.846,17.846,17.525,17.701,1833,0
20110401,17.846,17.846,17.545,17.778,941,0
20110404,17.807,17.807,17.02,17.506,790,0
20110405,17.02,17.302,17.02,17.214,2242,0
20110406,17.078,17.311,16.932,17.311,1470,0
20110407,17.487,17.487,17.311,17.311,144,0
20110408,17.214,17.438,17.117,17.311,848,0
20110411,17.117,17.311,17.029,17.029,4452,0
20110412,17.02,17.059,16.728,16.922,13011,0
20110413,16.942,17.253,16.728,16.825,2375,0
20110414,16.922,16.922,16.485,16.874,3831,0
20110415,17.068,17.068,16.738,16.738,103312,0
20110418,16.728,16.874,16.261,16.874,1795,0
20110419,16.825,16.971,16.825,16.971,353,0
20110420,16.961,16.971,16.825,16.864,486,0
20110421,17.01,17.01,16.582,16.582,1100,0
20110426,16.582,16.582,16.193,16.339,3022,0
20110427,16.436,16.436,16.417,16.426,626,0
20110428,16.426,16.436,16.057,16.057,704,0
20110429,16.144,16.144,15.58,16.047,813,0
20110502,16.426,16.426,16.047,16.047,673,0
20110504,16.144,16.144,15.95,15.95,1011,0
20110505,16.028,16.037,15.853,15.853,156,0
20110506,15.804,15.804,15.561,15.561,4310,0
20110509,15.561,15.561,15.327,15.561,2941,0
20110510,15.571,15.571,15.026,15.464,16682,0
20110511,15.357,15.386,15.357,15.386,108,0
20110512,15.357,15.561,15.357,15.357,575,0
20110513,15.464,15.464,14.316,14.404,6037,0
20110516,13.616,14.102,13.519,13.664,10879,0
20110517,13.694,13.762,13.421,13.499,6608,0
20110518,13.762,13.762,13.392,13.45,11540,0
20110519,13.557,13.557,12.993,12.993,5306,0
20110520,12.896,13.217,12.896,13.13,1236,0
20110523,13.12,13.227,13.12,13.178,1802,0
20110524,13.178,13.178,13.139,13.178,72,0
20110525,13.178,13.217,13.178,13.217,1280,0
20110526,13.227,13.227,13.11,13.11,1683,0
20110527,13.081,13.227,13.081,13.227,643,0
20110530,13.285,13.567,13.178,13.178,1108,0
20110531,13.227,13.227,13.178,13.178,186,0
20110601,13.275,13.275,13.178,13.217,1295,0
20110602,13.227,13.275,13.227,13.275,393,0
20110603,13.275,13.314,13.275,13.275,849,0
20110606,13.275,13.567,13.236,13.567,639,0
20110607,13.567,13.567,13.246,13.567,749,0
20110608,13.596,13.937,13.577,13.762,10128,0
20110609,13.762,13.937,13.762,13.937,411,0
20110610,14.015,14.015,13.674,14.015,5737,0
20110613,14.015,14.083,13.849,13.956,1510,0
20110614,14.005,14.005,13.82,13.908,1242,0
20110615,13.966,13.966,13.528,13.616,5174,0
20110616,13.616,13.616,13.227,13.324,2795,0
20110617,13.421,13.421,13.227,13.227,9921,0
20110620,13.227,13.227,12.935,12.984,509,0
20110621,12.984,12.984,11.914,12.595,2513,0
20110622,12.624,12.624,11.943,12.157,5198,0
20110624,11.962,12.06,10.99,11.243,5266,0
20110627,11.243,11.243,10.212,10.367,7762,0
20110628,10.688,10.893,10.309,10.455,2414,0
20110629,10.455,10.591,10.416,10.504,8888,0
20110630,10.698,11.184,10.649,10.698,2405,0
20110701,10.795,11.087,10.601,10.601,8751,0
20110704,10.698,10.698,10.163,10.299,2795,0
20110705,10.387,10.406,9.969,10.115,1890,0
20110706,10.115,10.115,9.94,10.066,2541,0
20110707,10.017,10.066,10.017,10.017,1006,0
20110708,10.017,10.017,9.92,9.998,370,0
20110711,9.998,9.998,9.823,9.823,4737,0
20110712,9.823,9.823,9.726,9.726,1748,0
20110713,9.833,9.978,9.726,9.726,9028,0
20110714,9.4532,9.696,9.4435,9.4435,73299,0
20110715,9.3365,9.3365,9.2393,9.2393,1444,0
20110718,9.0253,9.142,8.753,8.9475,2995,0
20110719,8.9475,8.9475,8.5293,8.6168,1553,0
20110720,8.364,8.6071,8.1889,8.6071,92820,0
20110721,8.6363,8.6363,8.2084,8.6168,4806,0
20110722,8.6168,8.6168,8.5099,8.539,1634,0
20110725,8.5099,8.6363,8.5099,8.6363,623,0
20110726,8.6071,8.6071,8.4904,8.5974,239,0
20110727,8.5974,8.5974,8.3737,8.3834,1586,0
20110728,8.3834,8.5585,8.1792,8.5585,8216,0
20110729,8.5099,8.5099,8.2764,8.5099,1446,0
20110801,8.5099,9.2879,8.5099,8.8503,15607,0
20110802,8.8503,9.0934,8.8503,8.8503,1982,0
20110803,8.753,8.7627,8.5099,8.6071,1635,0
20110804,8.5974,8.5974,7.7804,7.7804,1480,0
20110805,7.5373,7.5373,7.2164,7.4595,2908,0
20110808,6.9051,7.1483,6.8565,6.9051,5426,0
20110809,6.9051,7.0997,6.6231,6.9051,8122,0
20110810,6.9927,7.3428,6.9927,7.1872,1824,0
20110811,7.0997,7.5859,7.0997,7.2942,5276,0
20110812,7.5859,7.7804,7.5859,7.7804,17558,0
20110816,8.5585,8.5585,8.2667,8.364,4418,0
20110817,8.364,8.4321,8.364,8.364,1240,0
20110818,8.364,8.364,7.5373,7.5373,3938,0
20110819,7.5373,7.5373,7.0997,7.4887,2906,0
20110822,7.6832,7.7804,7.6346,7.6832,31855,0
20110823,7.8583,7.8583,7.4887,7.6832,13102,0
20110824,7.7707,7.7707,7.4498,7.5665,159,0
20110825,7.5859,7.5859,7.4206,7.5859,695,0
20110826,7.5859,7.5859,7.5568,7.5859,18659,0
20110829,7.6832,7.6832,7.6735,7.6832,794,0
20110830,7.7804,7.8193,7.6735,7.6832,75507,0
20110831,7.7804,7.7804,7.5762,7.5762,648,0
20110901,7.4984,7.4984,7.4498,7.4887,1347,0
20110902,7.4887,7.4887,7.1288,7.1483,989,0
20110905,6.8079,6.8079,6.5648,6.662,2979,0
20110906,6.4675,6.555,6.4189,6.555,1033,0
20110907,6.4286,6.6134,6.4286,6.6037,1639,0
20110908,6.555,6.8565,6.555,6.7301,1104,0
20110909,6.7301,6.8954,6.7301,6.8954,108,0
20110912,6.7301,6.7301,6.38,6.5161,2993,0
20110913,6.5258,6.5258,6.3411,6.4383,537,0
20110914,6.4091,6.4091,6.3411,6.3411,62,0
20110915,6.3411,6.3411,6.0298,6.2244,15570,0
20110916,6.2244,6.2244,5.8353,5.9326,5502,0
20110919,5.9715,5.9715,5.884,5.9034,1058,0
20110920,5.8937,5.9131,5.8937,5.9131,9300,0
20110921,5.9326,5.9326,5.8256,5.8353,1203,0
20110922,5.7673,5.777,5.6214,5.6214,4334,0
20110923,5.5436,5.5436,5.4463,5.5436,6527,0
20110926,5.3491,5.4463,4.96,5.3782,33117,0
20110927,5.4074,5.4074,5.174,5.281,4628,0
20110928,5.2713,5.3296,5.2518,5.3102,7873,0
20110929,5.3004,5.3004,5.1545,5.2032,1170,0
20110930,5.2032,5.2032,5.067,5.1545,630,0
20111003,5.1545,5.1545,4.8725,4.8725,12534,0
20111004,4.8628,4.8725,4.7752,4.8628,1763,0
20111005,4.8628,4.9989,4.8239,4.9503,32595,0
20111006,5.0087,5.0378,4.8628,5.0087,14559,0
20111007,5.1448,5.1448,4.9795,5.0087,5480,0
20111010,5.0476,5.0476,4.9698,5.0184,3470,0
20111011,5.0087,5.0573,4.9114,4.9892,12628,0
20111012,5.0573,5.1837,4.96,4.9698,158071,0
20111013,4.9795,5.1837,4.9698,4.9698,79890,0
20111014,5.1254,5.5436,5.1254,5.5436,27680,0
20111017,5.6505,6.8079,5.6505,5.9715,33480,0
20111018,5.9715,5.9715,5.5436,5.5727,22780,0
20111019,5.5922,5.7381,5.4269,5.4949,12020,0
20111020,5.4463,5.4463,5.2615,5.4171,126421,0
20111021,5.4755,5.6895,5.2226,5.6895,17220,0
20111024,5.7284,5.884,5.6408,5.884,7747,0
20111025,5.9229,5.9715,5.6116,5.6116,5248,0
20111026,5.6408,5.67,5.5144,5.5144,1842,0
20111027,5.5436,6.0785,5.5436,5.9909,147732,0
20111028,6.2827,6.3022,5.952,5.952,19843,0
20111031,6.0298,6.0298,5.8353,5.884,4154,0
20111102,5.7089,5.8451,5.4463,5.6408,13137,0
20111103,5.5922,5.9326,5.5922,5.9326,10422,0
20111104,6.0201,6.0201,5.7867,5.9618,3481,0
20111107,5.9715,6.0298,5.9326,5.9326,2065,0
20111108,5.9326,5.9909,5.8353,5.9326,8449,0
20111109,5.9326,5.9326,5.7381,5.7381,12678,0
20111110,5.6311,5.6408,5.6311,5.6408,2682,0
20111114,5.7867,5.7867,5.6603,5.6603,5286,0
20111115,5.456,5.456,5.2421,5.3491,25685,0
20111116,5.3102,5.3102,5.2615,5.2907,8514,0
20111117,5.3102,5.3102,5.1643,5.281,1846,0
20111118,5.388,5.388,4.9795,4.9795,6939,0
20111121,4.96,4.96,4.7363,4.7363,7713,0
20111122,4.7363,4.7947,4.3862,4.396,6879,0
20111123,4.3181,4.571,3.8999,4.3181,44957,0
20111124,4.3181,4.3181,4.2987,4.2987,467,0
20111125,4.3181,4.3181,4.2598,4.2695,321,0
20111128,4.2792,4.2792,3.8999,4.0945,25763,0
20111129,4.0458,4.2695,4.0361,4.2695,101920,0
20111130,4.2695,4.3765,4.1042,4.3668,7913,0
20111201,4.3765,4.4738,4.0847,4.2695,14180,0
20111202,4.2501,4.2501,4.1334,4.2014,3928,0
20111205,4.2112,4.2209,4.0458,4.0847,124180,0
20111206,4.0847,4.182,4.0847,4.1723,3114,0
20111207,4.182,4.182,3.9389,4.0847,57442,0
20111208,4.0945,4.0945,3.8902,3.9389,6823,0
20111209,3.9486,4.0069,3.6957,4.0069,9350,0
20111212,3.9389,4.0556,3.9389,4.0556,223004,0
20111213,4.0847,4.182,4.0847,4.1723,12038,0
20111214,4.182,4.2598,4.1042,4.182,8439,0
20111215,4.2306,4.2306,4.1334,4.182,13578,0
20111216,4.2209,4.2598,4.1236,4.182,8194,0
20111219,4.2306,4.2598,4.1625,4.1625,8556,0
20111220,4.2306,4.2306,4.1917,4.2306,10274,0
20111221,4.3084,4.3084,4.2792,4.289,10824,0
20111222,4.3084,4.3668,4.2792,4.3279,5547,0
20111223,4.3765,4.3765,4.3376,4.3376,586,0
20111227,4.3279,4.3279,4.2403,4.2792,5303,0
20111228,4.2792,4.2792,4.2501,4.2792,4222,0
20111229,4.2501,4.2792,4.2306,4.2792,4887,0
20111230,4.2792,4.2792,4.2695,4.2792,1656,0
20120102,4.2598,4.2598,4.2403,4.2403,1019,0
20120103,4.2403,4.2695,4.182,4.2695,4285,0
20120104,4.2695,4.2695,4.1528,4.1528,1514,0
20120105,4.182,4.2501,4.1042,4.1723,1704,0
20120109,4.2501,4.2501,4.2306,4.2501,1521,0
20120110,4.2501,4.3668,4.2501,4.357,991,0
20120111,4.357,4.6877,4.3473,4.6877,19331,0
20120112,4.6683,5.0476,4.6683,4.9503,14624,0
20120113,4.9503,5.0962,4.8628,4.8628,6436,0
20120116,4.8531,4.9503,4.8531,4.9406,2062,0
20120117,4.9503,5.3685,4.9503,5.3491,10554,0
20120118,5.6408,5.7186,5.563,5.67,15965,0
20120119,5.67,5.8062,5.6603,5.6797,12568,0
20120120,5.6797,5.7284,5.5436,5.5436,4684,0
20120123,5.4949,5.4949,5.1545,5.4852,5518,0
20120124,5.456,5.9715,5.4366,5.9715,18624,0
20120125,5.9715,6.3702,5.9715,6.3702,7883,0
20120126,6.6134,6.8079,6.5939,6.6912,11426,0
20120127,6.7204,6.9538,6.7106,6.9538,15360,0
20120130,6.876,7.0024,6.8565,7.0024,5588,0
20120131,6.9927,7.1775,6.944,7.0997,22947,0
20120201,7.0997,7.0997,6.8079,7.0413,13235,0
20120202,7.0024,7.0997,7.0024,7.0997,116298,0
20120203,7.0316,7.158,6.9051,7.0997,15847,0
20120206,6.9538,7.1775,6.9538,7.0899,4969,0
20120207,7.0899,7.1483,6.8857,7.0024,2610,0
20120208,7.0705,7.1386,7.0705,7.1094,5633,0
20120209,7.1094,7.1094,6.9538,7.051,9435,0
20120210,7.0705,7.0705,6.8176,6.983,7172,0
20120213,6.9732,7.4887,6.9732,7.4887,19639,0
20120214,7.8096,7.8096,7.1386,7.3817,15847,0
20120215,7.3817,7.8583,7.3817,7.8583,17285,0
20120216,7.8485,7.8485,7.6346,7.7804,29860,0
20120217,7.8777,8.4612,7.868,7.975,118629,0
20120220,8.3543,8.646,8.2667,8.5488,7964,0
20120221,8.646,8.6557,7.9944,7.9944,13813,0
20120222,7.975,7.975,7.5859,7.7804,15664,0
20120223,7.6929,8.1208,7.6929,7.975,13541,0
20120224,7.975,8.0722,7.8291,7.8291,12175,0
20120227,7.868,7.868,7.7026,7.7707,1256,0
20120228,7.7707,7.7707,7.6929,7.6929,805,0
20120229,7.3525,7.4011,6.944,6.9538,12389,0
20120301,6.7204,7.3622,6.6815,7.2942,423707,0
20120302,7.1483,7.2942,7.1483,7.2844,11498,0
20120305,7.2455,7.3622,7.1677,7.2261,40260,0
20120306,7.2261,7.2261,6.9149,6.9343,43010,0
20120307,6.9927,7.0997,6.8565,7.0997,2170,0
20120308,7.0997,7.2747,7.0802,7.265,6340,0
20120309,7.265,7.265,7.1483,7.1969,2963,0
20120312,7.1969,7.1969,6.9538,7.0024,1176,0
20120313,7.051,7.051,6.9538,7.0024,4197,0
20120314,7.0024,7.1677,7.0024,7.0024,4891,0
20120315,7.0024,7.051,7.0024,7.0024,7751,0
20120316,6.8857,6.8857,6.5161,6.5453,9790,0
20120319,6.7009,6.7982,6.6134,6.7982,46597,0
20120320,6.662,6.7982,6.6134,6.7982,2073,0
20120321,6.6134,6.6134,6.3216,6.4189,11981,0
20120322,6.4675,6.4675,6.2049,6.2924,5318,0
20120323,6.0882,6.4578,6.0882,6.3994,11003,0
20120326,6.3994,6.3994,6.2244,6.3605,9829,0
20120327,6.3702,6.4967,6.3702,6.4967,83009,0
20120328,6.5064,6.7301,6.4967,6.7301,1823,0
20120329,6.6134,6.8079,6.5648,6.7982,2120,0
20120330,6.8565,6.8565,6.5939,6.7787,1925,0
20120402,6.7884,6.7982,6.7398,6.7982,1826,0
20120403,6.7884,6.7884,6.6134,6.6134,335,0
20120404,6.662,6.662,6.1271,6.2438,6297,0
20120405,6.1271,6.4091,6.1271,6.2438,21819,0
20120410,6.1271,6.2633,5.8353,5.9229,4298,0
20120411,5.6797,5.9229,5.6797,5.9229,4233,0
20120412,5.9229,5.9229,5.8353,5.9034,699,0
20120413,5.9229,5.9326,5.8353,5.8353,61843,0
20120416,5.9423,6.0201,5.9423,6.0104,319,0
20120417,5.9326,6.1368,5.9326,5.9326,2031,0
20120418,5.9423,6.2924,5.9423,6.2244,3037,0
20120419,6.3022,6.4772,6.3022,6.3216,33535,0
20120420,6.4869,6.4869,6.2924,6.3994,169,0
20120423,6.3605,6.3605,5.7381,5.9909,8073,0
20120424,5.456,6.3119,5.456,6.3119,8862,0
20120425,6.0396,6.1271,5.8256,5.8256,68428,0
20120426,5.8159,5.8159,5.4463,5.4755,5487,0
20120427,5.4074,5.8256,5.3977,5.8256,149580,0
20120430,5.8353,5.9715,5.8353,5.9326,423,0
20120502,5.9812,6.0201,5.8742,5.9326,10417,0
20120504,5.9909,6.0104,5.952,6.0104,14397,0
20120507,5.9326,5.9326,5.67,5.8353,956,0
20120508,5.9034,5.9034,5.7381,5.7381,41674,0
20120509,5.7673,5.7673,5.6505,5.6603,587,0
20120510,5.6408,5.6603,5.5338,5.6408,952,0
20120511,5.5144,5.67,5.5144,5.5436,72665,0
20120514,5.5436,5.5436,5.4366,5.5241,9541,0
20120515,5.5436,5.5436,5.4852,5.4852,116,0
20120516,5.3685,5.3685,4.96,5.1545,8485,0
20120517,5.0087,5.0087,4.785,4.785,3982,0
20120518,4.785,5.1545,4.5516,5.1448,62735,0
20120521,5.1156,5.8353,5.1156,5.8256,16400,0
20120522,5.8256,5.9909,5.8159,5.8159,8913,0
20120523,5.7478,5.7478,5.6408,5.6408,8730,0
20120524,5.6408,5.6408,5.4463,5.4463,2607,0
20120525,5.5241,5.5241,5.3491,5.3491,2468,0
20120528,5.3491,5.3491,5.1545,5.3004,979,0
20120529,5.3491,5.3491,5.1837,5.1837,2353,0
20120530,5.2421,5.2421,4.9309,4.96,8086,0
20120531,4.8628,4.8628,4.6002,4.8628,10933,0
20120601,4.8142,5.0767,4.7169,4.8142,25425,0
20120604,4.7947,4.7947,4.4251,4.5418,24256,0
20120605,4.396,4.4932,4.2501,4.3084,28449,0
20120606,4.2987,4.2987,4.182,4.182,2475,0
20120608,4.1334,4.4835,4.1334,4.4835,6886,0
20120611,4.4835,4.7266,4.4738,4.6683,3009,0
20120612,4.6683,4.8725,4.6683,4.785,8652,0
20120613,4.8628,5.2518,4.8628,5.2518,7224,0
20120614,5.2518,5.7381,5.2518,5.7186,4952,0
20120615,5.7867,6.0298,5.7284,6.0201,13839,0
20120618,6.0298,6.0298,6.0201,6.0201,5172,0
20120619,6.0298,6.0298,5.9326,6.0104,737,0
20120620,6.0104,6.0104,5.5436,5.5436,1135,0
20120621,5.5436,5.6214,5.2032,5.2032,4412,0
20120622,5.2518,5.2615,4.8628,4.9406,5919,0
20120625,4.8628,4.8628,4.678,4.678,3032,0
20120626,4.678,4.9309,4.5516,4.8433,4359,0
20120627,5.0573,5.1448,4.7558,4.7558,5508,0
20120628,4.7558,5.067,4.4738,4.5418,25771,0
20120629,4.571,4.571,4.0945,4.1236,56765,0
20120702,4.1139,4.1139,3.579,3.6957,41043,0
20120703,3.7346,3.793,3.365,3.4428,39362,0
20120704,3.4526,3.4526,3.2581,3.3553,13250,0
20120705,3.365,3.5887,3.3359,3.5887,109937,0
20120706,3.5887,3.7735,3.5887,3.7152,21066,0
20120709,3.686,3.8805,3.6568,3.8805,8580,0
20120710,3.9972,3.9972,3.793,3.8708,2649,0
20120711,3.861,3.861,3.5985,3.6471,18563,0
20120712,3.5985,3.5985,3.5012,3.5109,29185,0
20120713,3.5401,3.5887,3.5304,3.5693,3085,0
20120716,3.5887,3.5985,3.5401,3.5693,4758,0
20120717,3.579,3.579,3.5012,3.5401,3154,0
20120718,3.5012,3.7152,3.5012,3.7152,6899,0
20120719,3.7249,3.7249,3.5985,3.5985,881,0
20120720,3.5985,3.5985,3.5498,3.5693,597,0
20120723,3.5012,3.5207,3.4039,3.5207,4263,0
20120724,3.5207,3.5207,3.4234,3.5012,339,0
20120725,3.4331,3.5012,3.4331,3.5012,2064,0
20120726,3.5012,3.5207,3.3261,3.4039,5445,0
20120727,3.4331,3.4817,3.3456,3.472,3724,0
20120730,3.4623,3.4817,3.4623,3.4817,104,0
20120731,3.4817,3.4817,3.3067,3.4039,4658,0
20120801,3.3845,3.3845,3.0636,3.2678,18497,0
20120802,3.2678,3.5498,3.2094,3.2678,20835,0
20120803,3.365,3.365,3.0636,3.19,21586,0
20120806,3.1803,3.1803,3.1803,3.1803,659,0
20120807,3.1803,3.3359,3.1803,3.3359,293,0
20120808,3.365,3.4915,3.3359,3.4331,2404,0
20120809,3.4331,3.4331,3.4331,3.4331,1,0
20120810,3.4331,3.4331,3.4331,3.4331,1,0
20120813,3.3845,3.4817,3.3845,3.4817,1645,0
20120814,3.472,3.472,3.3456,3.3456,354,0
20120816,3.3456,3.365,3.3456,3.365,534,0
20120817,3.3748,3.3748,3.3748,3.3748,118,0
20120820,3.4331,3.4331,3.3164,3.3845,3317,0
20120821,3.3942,3.3942,3.297,3.3942,1080,0
20120822,3.4331,3.4331,3.3359,3.4039,4422,0
20120823,3.4039,3.4623,3.3456,3.4623,474,0
20120824,3.4623,3.5985,3.4623,3.5985,5907,0
20120827,3.6276,3.6276,3.5012,3.5887,8811,0
20120828,3.4817,3.5401,3.4039,3.4915,7025,0
20120829,3.5012,3.5012,3.3456,3.5012,4201,0
20120830,3.5012,3.5401,3.4039,3.4915,1431,0
20120831,3.4039,3.4915,3.2581,3.4526,12144,0
20120903,3.4526,3.4526,3.4039,3.4526,2879,0
20120904,3.4817,3.4817,3.4331,3.4331,41,0
20120905,3.1803,3.3553,3.1803,3.3359,10141,0
20120906,3.3261,3.365,3.2192,3.3359,4020,0
20120907,3.3067,3.5304,3.3067,3.3942,6687,0
20120910,3.4039,3.6082,3.4039,3.5012,23900,0
20120911,3.5012,3.5596,3.3845,3.4817,2199,0
20120912,3.4915,3.5304,3.4915,3.5012,699,0
20120913,3.5012,3.5012,3.5012,3.5012,51,0
20120914,3.4526,3.5109,3.4234,3.5012,14727,0
20120917,3.5109,3.5109,3.4234,3.4915,360,0
20120918,3.5012,3.5012,3.4039,3.4234,1492,0
20120919,3.4039,3.5012,3.297,3.4526,49407,0
20120920,3.4526,3.4526,3.2094,3.2386,15279,0
20120921,3.2386,3.3456,3.2386,3.3456,8683,0
20120924,3.3942,3.4817,3.3942,3.4526,7520,0
20120925,3.4623,3.4623,3.4039,3.4623,2528,0
20120926,3.5012,3.5012,3.4039,3.4915,5098,0
20120927,3.4915,3.686,3.4137,3.686,3842,0
20120928,3.686,3.686,3.5887,3.5887,8147,0
20121001,3.5887,3.6179,3.5693,3.5985,89387,0
20121002,3.5596,3.6568,3.5596,3.5985,3574,0
20121003,3.5985,3.5985,3.4817,3.5887,1966,0
20121004,3.5887,3.5887,3.4137,3.5401,4266,0
20121005,3.5596,3.5596,3.5012,3.5401,1181,0
20121008,3.5401,3.579,3.5304,3.579,1138,0
20121009,3.579,3.793,3.579,3.5985,9350,0
20121010,3.6471,3.6471,3.5109,3.5985,762,0
20121011,3.5985,3.6082,3.5693,3.5985,1482,0
20121012,3.5693,3.686,3.5693,3.5985,14797,0
20121015,3.5985,3.5985,3.579,3.5985,31919,0
20121016,3.5985,3.5985,3.5109,3.5887,7828,0
20121017,3.5887,3.5985,3.5109,3.5985,2732,0
20121018,3.5985,3.5985,3.5498,3.5985,3285,0
20121019,3.6179,3.6179,3.5693,3.5693,25708,0
20121022,3.5985,3.5985,3.5693,3.5985,3123,0
20121023,3.5693,3.5887,3.4915,3.5498,5726,0
20121024,3.5012,3.5401,3.4234,3.4623,2670,0
20121025,3.472,3.472,3.472,3.472,62,0
20121026,3.4526,3.4915,3.4039,3.4915,2194,0
20121029,3.5012,3.5012,3.3261,3.365,7249,0
20121030,3.3261,3.4331,3.2094,3.4331,11655,0
20121031,3.4331,3.5985,3.4137,3.5401,753,0
20121102,3.5401,3.5985,3.3748,3.4526,4890,0
20121105,3.4331,3.5693,3.4331,3.4915,1921,0
20121106,3.5304,3.5304,3.4526,3.5012,8745,0
20121107,3.5304,3.5596,3.4915,3.5012,2245,0
20121108,3.4817,3.5304,3.4817,3.5012,3743,0
20121109,3.4817,3.5304,3.4817,3.4817,3237,0
20121112,3.5012,3.5012,3.4915,3.4915,566,0
20121113,3.4526,3.5207,3.2678,3.4526,6269,0
20121114,3.3261,3.4526,3.2678,3.4526,4616,0
20121115,3.4039,3.4428,3.1025,3.3261,10095,0
20121116,3.1316,3.3164,3.1316,3.2289,2835,0
20121119,3.2872,3.2872,3.2872,3.2872,206,0
20121120,3.3164,3.3845,3.3067,3.3748,7230,0
20121121,3.3845,3.3942,3.3067,3.3748,1672,0
20121122,3.4039,3.4039,3.3553,3.3942,2428,0
20121123,3.3942,3.3942,3.3164,3.3942,488,0
20121126,3.3942,3.3942,3.3067,3.3845,2401,0
20121127,3.3067,3.3553,3.3067,3.3553,1497,0
20121128,3.3456,3.3456,3.19,3.2775,6852,0
20121129,3.2775,3.3845,3.083,3.083,11120,0
20121130,3.1608,3.3845,3.1608,3.3553,6940,0
20121203,3.3845,3.5012,3.3261,3.5012,5943,0
20121204,3.4817,3.4817,3.3845,3.4526,3097,0
20121205,3.4526,3.4915,3.3359,3.4915,4863,0
20121206,3.4915,3.4915,3.3359,3.472,1941,0
20121207,3.472,3.5012,3.3261,3.4526,3977,0
20121210,3.472,3.5012,3.4039,3.472,974,0
20121211,3.4817,3.4817,3.4234,3.4817,730,0
20121212,3.4817,3.4817,3.3164,3.4526,8503,0
20121213,3.4526,3.7832,3.3553,3.7832,260220,0
20121214,3.793,4.0556,3.793,3.8805,19019,0
20121217,3.9778,3.9778,3.6763,3.7541,16282,0
20121218,3.8027,3.8027,3.6568,3.6957,2428,0
20121219,3.7249,3.793,3.7249,3.7832,1213,0
20121220,3.7832,3.793,3.6957,3.7541,8852,0
20121221,3.7249,3.7249,3.6957,3.6957,524,0
20121227,3.6957,3.7249,3.5012,3.7152,20849,0
20121228,3.7152,3.793,3.6374,3.793,47865,0
20130102,3.7832,3.7832,3.6471,3.7346,775,0
20130103,3.686,3.7443,3.5985,3.6957,70416,0
20130104,3.6957,3.6957,3.6179,3.6763,931,0
20130107,3.6471,3.6763,3.5985,3.6374,1928,0
20130108,3.6374,3.6374,3.5012,3.5887,1341,0
20130109,3.5985,3.6179,3.5887,3.6082,26573,0
20130110,3.6471,3.686,3.5985,3.5985,8551,0
20130111,3.5985,3.6568,3.5985,3.6471,15928,0
20130114,3.6276,3.6665,3.6276,3.6471,13135,0
20130115,3.6471,3.6568,3.5207,3.579,8250,0
20130116,3.5693,3.6276,3.5401,3.6276,4997,0
20130117,3.6082,3.6568,3.5693,3.6471,1562,0
20130118,3.6568,3.6568,3.6276,3.6568,167140,0
20130121,3.6763,4.4349,3.6763,4.2014,293594,0
20130122,4.1431,4.182,4.0556,4.0945,12249,0
20130123,4.1236,4.1334,4.0167,4.075,8182,0
20130124,3.9972,4.3181,3.9972,4.2306,78609,0
20130125,4.2306,4.2306,4.1334,4.2014,7965,0
20130128,4.2014,4.4543,4.1723,4.396,44231,0
20130129,4.4251,4.4543,4.3084,4.4251,28163,0
20130130,4.4349,4.6099,4.2306,4.396,174310,0
20130131,4.3668,4.3668,4.0847,4.2987,37557,0
20130201,4.182,4.2501,4.0264,4.1528,15110,0
20130204,4.0361,4.2403,3.8805,4.1625,35875,0
20130205,4.1625,4.2598,4.1139,4.2501,7806,0
20130206,4.2598,4.2792,4.182,4.2112,6559,0
20130207,4.2014,4.2792,4.1042,4.1625,11523,0
20130208,4.1625,4.1625,4.0167,4.1625,15421,0
20130211,4.182,4.3473,4.1723,4.2695,11542,0
20130212,4.2695,4.3668,4.2598,4.3376,111717,0
20130213,4.357,4.4543,4.2598,4.2987,37047,0
20130214,4.2987,4.357,4.2598,4.2695,50720,0
20130215,4.2987,4.357,4.2598,4.3279,12072,0
20130218,4.3279,4.5224,4.3279,4.5224,87489,0
20130219,4.5224,4.7363,4.4446,4.7363,45292,0
20130220,4.7655,4.7655,4.5224,4.5224,14734,0
20130221,4.4251,4.6196,4.3862,4.6002,19886,0
20130222,4.571,4.678,4.571,4.6585,33048,0
20130225,4.6488,4.8044,4.6488,4.7655,40906,0
20130226,4.7655,5.0184,4.7655,4.9406,37611,0
20130227,4.9406,5.0087,4.7266,4.8336,19495,0
20130228,4.7752,4.9114,4.7752,4.8336,11151,0
20130301,4.7461,4.8433,4.7461,4.8433,3864,0
20130304,4.8531,4.8531,4.6585,4.6683,26405,0
20130305,4.7072,4.7072,4.5418,4.571,8808,0
20130306,4.5807,4.678,4.5807,4.6683,9024,0
20130307,4.6585,4.7461,4.6585,4.6585,6493,0
20130308,4.6585,4.6585,4.4446,4.6099,19379,0
20130311,4.7558,4.7558,4.571,4.6196,11645,0
20130312,4.6294,4.6683,4.5613,4.5613,6205,0
20130313,4.571,4.6099,4.2501,4.4932,45952,0
20130314,4.464,4.4738,4.3376,4.4543,11992,0
20130315,4.4251,4.571,4.2987,4.4251,33738,0
20130318,4.5516,4.6099,4.5418,4.6099,3911,0
20130319,4.5418,4.6099,4.5224,4.5807,15149,0
20130320,4.5807,4.6099,4.5807,4.5905,9022,0
20130321,4.571,4.571,4.3279,4.5029,3885,0
20130322,4.3473,4.3765,4.1334,4.357,16305,0
20130325,4.3862,4.3862,4.2014,4.2695,4442,0
20130326,4.1625,4.2501,3.8805,3.9972,31813,0
20130327,4.182,4.182,3.9097,4.0945,8563,0
20130328,4.1528,4.2209,4.0945,4.1625,12037,0
20130402,4.0653,4.0653,3.9778,4.0458,32519,0
20130403,4.0458,4.0458,4.0069,4.0069,23045,0
20130404,4.0069,4.0069,3.8902,3.8902,6453,0
20130405,4.0069,4.0653,3.8902,3.8902,11770,0
20130408,3.793,3.9875,3.793,3.8999,2198,0
20130409,3.9291,4.0167,3.9291,3.9389,4447,0
20130410,3.9097,3.9097,3.6665,3.686,42879,0
20130411,3.6957,3.7152,3.5693,3.6957,18509,0
20130412,3.6957,3.6957,3.5498,3.5887,16899,0
20130415,3.5596,3.6082,3.5498,3.6082,7373,0
20130417,3.6276,3.6276,3.5012,3.5693,3145,0
20130418,3.5109,3.5109,3.3748,3.3748,1887,0
20130419,3.4234,3.4234,3.2094,3.4137,26330,0
20130422,3.4817,3.4817,3.1705,3.3553,18126,0
20130423,3.2094,3.3261,3.2094,3.3067,2879,0
20130424,3.3261,3.3845,3.3067,3.365,4987,0
20130425,3.3553,3.3845,3.2581,3.2581,3184,0
20130426,3.2581,3.3456,3.1608,3.3456,17703,0
20130429,3.3748,3.4428,3.3748,3.4137,10303,0
20130430,3.4137,3.4137,3.4039,3.4039,713,0
20130502,3.4039,3.4039,3.3942,3.3942,46,0
20130506,3.3942,3.3942,3.1705,3.3067,5975,0
20130507,3.2289,3.4039,3.2289,3.3845,3291,0
20130508,3.3845,3.4331,3.3553,3.4331,5252,0
20130509,3.5012,3.5498,3.472,3.472,18613,0
20130510,3.5012,3.5596,3.472,3.5596,6041,0
20130513,3.5596,3.7541,3.5498,3.6957,7627,0
20130514,3.7152,3.8319,3.7054,3.8319,2890,0
20130515,3.8999,4.2792,3.8999,4.2792,11012,0
20130516,4.3279,4.3376,4.1723,4.3376,23018,0
20130517,4.3668,4.3668,4.2403,4.357,11342,0
20130520,4.2792,4.289,4.2306,4.2792,118239,0
20130521,4.2792,4.2792,4.182,4.2792,110208,0
20130522,4.2014,4.2014,4.2014,4.2014,89,0
20130523,4.2014,4.2014,3.8708,4.1723,12572,0
20130524,4.1723,4.1723,4.0556,4.1625,596,0
20130527,3.8708,4.2695,3.8708,4.2695,5599,0
20130528,4.1334,4.2695,4.1334,4.182,801,0
20130529,4.3473,4.3473,4.1042,4.1723,2805,0
20130531,4.1625,4.2792,4.1625,4.2014,781,0
20130603,4.289,4.289,4.2014,4.2695,134,0
20130604,4.2501,4.2501,4.075,4.2112,1270,0
20130605,4.1431,4.1917,4.1431,4.1917,206,0
20130606,4.1139,4.1334,4.1139,4.1236,1370,0
20130607,4.1236,4.1236,3.9583,4.0847,2023,0
20130610,3.9972,4.3181,3.9972,4.3181,13717,0
20130611,4.1625,4.3084,4.1625,4.2792,1379,0
20130612,4.2695,4.2695,4.0458,4.1334,19435,0
20130613,3.9875,4.3279,3.9875,4.2695,62983,0
20130614,4.2014,4.3376,4.2014,4.3376,4055,0
20130617,4.3376,4.357,4.075,4.357,6336,0
20130618,4.3668,4.4251,4.2792,4.4251,53017,0
20130619,4.4543,4.6099,4.4543,4.6099,6845,0
20130620,4.7169,4.7169,4.2501,4.5905,12846,0
20130621,4.2112,4.4738,4.2112,4.4057,3802,0
20130624,4.182,4.2695,4.182,4.2598,2283,0
20130625,4.2112,4.2695,4.2112,4.2695,1287,0
20130626,4.2306,4.2306,4.2112,4.2112,257,0
20130627,4.2403,4.3084,4.0361,4.0945,9177,0
20130628,4.0945,4.0945,3.7152,4.0653,21033,0
20130701,4.0556,4.0556,3.8902,3.9097,9687,0
20130702,3.8902,4.0361,3.8902,4.0361,2714,0
20130703,3.9389,4.1528,3.9389,4.1528,1132,0
20130704,4.1334,4.182,4.0361,4.0653,31490,0
20130705,4.0653,4.0653,4.0069,4.0069,175,0
20130708,4.0264,4.0361,3.9194,4.0361,8865,0
20130709,4.0653,4.0847,3.9875,3.9875,6869,0
20130710,4.0069,4.0361,3.9389,4.0361,1259,0
20130711,4.0361,4.0361,3.9583,3.9875,3362,0
20130712,4.0167,4.0167,3.9097,3.968,5346,0
20130715,3.9389,3.9875,3.9389,3.9875,206,0
20130716,4.0458,4.0847,3.968,4.0653,5881,0
20130717,4.0847,4.0847,3.9875,4.0653,165,0
20130718,4.0361,4.0361,4.0361,4.0361,51,0
20130722,3.9389,3.9389,3.8319,3.8416,7745,0
20130723,3.793,3.8124,3.793,3.8124,198,0
20130724,3.8805,3.9972,3.861,3.8999,8057,0
20130725,4.0264,4.0847,4.0264,4.0847,3999,0
20130726,4.0847,4.0847,4.0361,4.0556,297,0
20130729,4.075,4.0847,4.075,4.0847,456,0
20130730,4.0847,4.0847,4.0264,4.0264,650,0
20130731,3.9875,3.9875,3.968,3.968,1618,0
20130801,3.9875,3.9875,3.8999,3.9097,2021,0
20130802,3.9097,3.9875,3.9097,3.9875,2962,0
20130805,3.9875,3.9875,3.9097,3.9875,4264,0
20130806,3.9972,4.0847,3.9875,4.0847,45235,0
20130807,4.0458,4.2792,4.0458,4.2792,14012,0
20130808,4.571,4.571,4.4738,4.5127,3722,0
20130809,4.5127,4.571,4.2306,4.4738,10152,0
20130812,4.5127,4.5224,4.3279,4.3279,3288,0
20130813,4.3473,4.3473,4.2598,4.2792,7653,0
20130814,4.2792,4.571,4.2792,4.571,8002,0
20130816,4.6196,4.6196,4.4738,4.4738,422,0
20130819,4.4738,4.6683,4.4738,4.6683,18535,0
20130820,4.7266,4.7461,4.6683,4.7266,5684,0
20130821,4.7266,4.7266,4.571,4.6002,1287,0
20130822,4.678,4.678,4.6002,4.6585,11922,0
20130823,4.6683,4.7169,4.6196,4.6683,3952,0
20130826,4.6683,4.8531,4.6683,4.7655,25808,0
20130827,4.8433,4.8433,4.7655,4.7655,1052,0
20130828,4.7655,4.7655,4.7558,4.7655,2682,0
20130829,4.7655,4.7655,4.6974,4.6974,11005,0
20130830,4.7655,4.7655,4.289,4.7072,33666,0
20130902,4.5321,4.5321,4.5224,4.5224,784,0
20130903,4.571,4.7752,4.571,4.7752,10478,0
20130904,4.7947,4.8142,4.7169,4.8142,2264,0
20130905,4.8142,4.8142,4.6488,4.7655,26760,0
20130906,4.6877,4.7558,4.6877,4.7558,2325,0
20130909,4.7169,4.7558,4.7169,4.7558,905,0
20130910,4.7558,5.0378,4.6683,5.0184,25436,0
20130911,5.0573,5.2421,5.0573,5.2032,14226,0
20130912,5.2032,5.2032,5.1837,5.1837,1516,0
20130913,5.4463,5.9909,5.4463,5.8548,130998,0
20130916,6.3216,6.3216,6.0396,6.2827,84033,0
20130917,6.3022,6.6717,6.1855,6.5842,98703,0
20130918,6.5842,6.5842,6.3702,6.4091,29902,0
20130919,6.3994,6.7009,6.3022,6.5258,68164,0
20130920,6.5842,6.5842,6.5161,6.5258,5661,0
20130923,6.448,6.448,6.2341,6.2341,11968,0
20130924,6.2341,6.2341,6.0785,6.1174,17828,0
20130925,6.1174,6.2341,6.0298,6.1855,15434,0
20130926,6.1271,6.1271,6.0298,6.1271,21096,0
20130927,6.1952,6.1952,6.0298,6.059,3119,0
20130930,6.0298,6.1077,5.7381,6.0979,31931,0
20131001,6.0396,6.0396,5.9326,6.0007,905,0
20131002,6.0007,6.0007,5.8353,5.9326,5472,0
20131003,5.8937,6.0687,5.884,6.0007,5967,0
20131004,6.0007,6.166,5.9326,6.166,4615,0
20131007,6.1563,6.1563,5.9034,6.0201,2260,0
20131008,5.9812,6.0298,5.9423,5.9423,2247,0
20131009,5.9229,5.9423,5.9034,5.9326,2311,0
20131010,5.8937,6.2244,5.6895,6.2244,29965,0
20131011,6.2244,6.2244,6.0979,6.2049,8497,0
20131014,6.2244,6.2244,6.1368,6.2049,24536,0
20131015,6.2146,6.2244,6.0785,6.1466,3954,0
20131016,6.1077,6.1466,6.0882,6.1466,5389,0
20131017,6.1466,6.1466,6.0493,6.0785,3166,0
20131018,6.0979,6.1757,6.0298,6.1757,6911,0
20131021,6.1077,6.2244,5.9618,6.2244,10437,0
20131022,6.2244,6.4772,6.1368,6.3897,47914,0
20131023,6.3702,6.4675,6.3216,6.4189,11752,0
20131024,6.5161,6.5161,6.4189,6.5161,17175,0
20131025,6.5161,6.6134,6.448,6.5064,21173,0
20131028,6.4675,6.8079,6.4578,6.7593,43111,0
20131029,6.7593,6.8468,6.7106,6.8079,47424,0
20131030,6.8565,6.9927,6.8079,6.8176,32072,0
20131031,6.7204,6.7787,6.7106,6.7787,2494,0
20131104,6.8371,6.9051,6.8079,6.8565,10659,0
20131105,6.8176,6.8371,6.8176,6.8176,7190,0
20131106,6.8079,6.8565,6.6523,6.8565,12779,0
20131107,6.8565,6.9051,6.769,6.9051,19464,0
20131108,6.8857,6.8857,6.662,6.6815,4231,0
20131112,6.6717,6.7884,6.4286,6.7884,6430,0
20131113,6.7884,6.8079,6.7495,6.8079,5697,0
20131114,6.8079,6.8176,6.7301,6.8079,32431,0
20131115,6.8176,7.2844,6.8079,7.1483,73244,0
20131118,7.2942,7.2942,7.158,7.1969,14585,0
20131119,7.1191,7.6346,7.1191,7.6346,55943,0
20131120,7.6346,7.654,7.3428,7.5665,8345,0
20131121,7.5276,7.5276,7.4011,7.479,4188,0
20131122,7.479,7.6054,7.479,7.5762,2557,0
20131125,7.5762,7.6248,7.5762,7.5859,2637,0
20131126,7.5762,7.6443,7.0219,7.3914,8582,0
20131127,7.1969,7.3914,7.1483,7.1483,25424,0
20131128,7.1483,7.2942,6.944,7.0705,3483,0
20131129,7.0705,7.0705,6.8565,7.0608,20864,0
20131202,7.158,7.1969,7.051,7.0608,13956,0
20131203,7.0608,7.0608,6.9246,7.051,5011,0
20131204,6.9246,6.9538,6.8273,6.9538,7933,0
20131205,6.9246,7.051,6.9246,6.9732,15220,0
20131206,6.9051,6.9051,6.2244,6.8954,46213,0
20131209,6.8954,6.9246,6.8273,6.9246,7238,0
20131210,6.9343,6.9343,6.8079,6.9246,19288,0
20131211,6.9343,7.051,6.8273,7.0024,4723,0
20131212,7.0413,7.0413,6.769,6.9538,20982,0
20131213,6.8565,7.0024,6.8273,7.0024,6751,0
20131216,7.0024,7.0024,6.8371,6.8565,1815,0
20131217,6.8565,6.8565,6.6134,6.6134,2785,0
20131218,6.7009,6.7495,6.5258,6.7398,3265,0
20131219,6.662,6.7398,6.662,6.7398,1541,0
20131220,6.7398,6.7398,6.3216,6.7009,37408,0
20131223,6.7884,6.7884,6.38,6.7398,16629,0
20131227,6.7398,6.7398,6.7398,6.7398,823,0
20131230,6.7106,6.8079,6.6037,6.7009,1918,0
20140102,6.8371,6.8371,6.7593,6.7884,991,0
20140103,6.7884,6.8273,6.6037,6.8176,1819,0
20140107,6.8079,6.8079,6.6231,6.6717,1893,0
20140108,6.662,6.7982,6.662,6.7982,4236,0
20140109,6.7593,6.7593,6.7398,6.7398,486,0
20140110,6.7495,7.0997,6.6912,7.0997,15296,0
20140113,6.8079,7.0899,6.8079,7.0899,2335,0
20140114,6.8565,7.0024,6.8565,7.0024,319,0
20140115,7.0024,7.0413,6.9051,6.9051,1901,0
20140116,6.9149,6.9538,6.9051,6.9051,2638,0
20140117,6.9149,6.9149,6.9051,6.9051,559,0
20140120,6.9051,6.944,6.9051,6.9051,4053,0
20140121,6.9051,7.1386,6.9051,7.0413,29085,0
20140122,7.0997,7.2358,7.0997,7.1191,4268,0
20140123,7.1969,7.4109,7.1969,7.372,4999,0
20140124,7.3914,7.4595,7.3525,7.4401,8313,0
20140127,7.3331,7.4109,7.2553,7.4109,8117,0
20140128,7.4109,7.7804,7.3136,7.6832,23919,0
20140129,7.975,7.9944,7.8096,7.9458,39824,0
20140130,7.9166,8.4904,7.8291,8.4223,27528,0
20140131,8.4904,8.4904,8.3543,8.4126,40175,0
20140203,8.4126,8.6557,8.364,8.539,20501,0
20140204,8.5099,8.5196,8.4321,8.4515,7566,0
20140205,8.2667,8.2667,8.1014,8.2084,12394,0
20140206,8.1986,8.1986,7.9166,7.9166,12105,0
20140207,8.043,8.043,7.8388,7.8777,61102,0
20140210,7.8777,8.0041,7.7999,7.7999,2145,0
20140211,7.8291,7.9944,7.6054,7.7707,12623,0
20140212,7.7707,8.1695,7.7707,8.0722,17267,0
20140213,8.1111,8.1403,8.0236,8.1403,2907,0
20140214,8.1208,8.1306,7.9458,8.0236,2984,0
20140217,7.9361,7.9652,7.8388,7.9458,6005,0
20140218,7.8388,7.9847,7.7026,7.8777,6742,0
20140219,7.9652,7.9652,7.761,7.8777,4728,0
20140220,7.8777,7.9652,7.8583,7.8777,2010,0
20140221,7.7902,7.9263,7.7804,7.9263,2438,0
20140224,7.8388,7.9555,7.8388,7.8777,1752,0
20140225,7.8777,7.8777,7.7124,7.7318,5455,0
20140226,7.7707,7.7707,7.4984,7.4984,6475,0
20140227,7.4887,7.4887,7.158,7.3233,4897,0
20140228,7.2164,7.4887,7.2164,7.4887,3537,0
20140303,7.265,7.265,6.7495,6.9051,15205,0
20140304,6.8565,7.0899,6.8565,7.051,6698,0
20140305,7.1483,7.3914,7.0899,7.2942,43711,0
20140306,7.2455,7.2942,7.0997,7.0997,5226,0
20140307,7.1094,7.1094,7.0024,7.0024,27005,0
20140310,6.876,6.876,6.7106,6.7982,7001,0
20140311,6.7982,6.9732,6.7204,6.9732,5136,0
20140312,6.9246,6.9246,6.7884,6.8079,4423,0
20140313,6.7982,6.8565,6.769,6.8468,6481,0
20140314,6.8468,6.8565,6.5453,6.5648,45614,0
20140317,6.5356,6.7106,6.5356,6.7106,5859,0
20140318,6.7106,6.7495,6.7106,6.7495,5017,0
20140319,6.7593,7.2942,6.7593,7.2942,24537,0
20140320,7.3817,7.5373,7.1969,7.4401,7174,0
20140321,7.4887,7.5373,7.4011,7.4595,8069,0
20140324,7.4498,7.4498,7.051,7.1677,2988,0
20140325,7.1094,7.2261,7.1094,7.2261,759,0
20140326,7.2261,7.2261,7.0899,7.1677,3205,0
20140327,7.1483,7.1483,7.0219,7.0219,874,0
20140328,7.0024,7.0219,6.7787,6.8079,7106,0
20140331,6.7982,7.1386,6.7495,7.1386,4670,0
20140401,7.1386,7.1386,6.7495,6.8079,19384,0
20140402,6.8079,6.8079,6.6134,6.7398,5704,0
20140403,6.6328,6.8079,6.6328,6.8079,30037,0
20140404,6.7009,6.8662,6.6815,6.8176,24315,0
20140407,6.7106,6.7106,6.6523,6.6523,21684,0
20140408,6.7009,6.7009,6.6523,6.662,1841,0
20140409,6.6717,6.7009,6.6717,6.6717,2335,0
20140410,6.7009,6.7009,6.6426,6.662,2264,0
20140411,6.6426,6.6523,6.5648,6.6231,3910,0
20140414,6.5939,6.5939,6.4869,6.4869,1620,0
20140415,6.2827,6.3702,6.2244,6.2244,22378,0
20140416,6.1952,6.1952,5.952,6.1466,7682,0
20140417,6.1757,6.1757,6.0785,6.0785,76463,0
20140422,6.0785,6.3216,6.0785,6.3216,3367,0
20140423,6.3216,6.3897,6.2244,6.2244,4033,0
20140424,6.2049,6.2341,6.0785,6.0785,2303,0
20140425,6.0882,6.2244,6.0882,6.1368,357,0
20140428,6.1368,6.1368,6.1368,6.1368,15,0
20140429,6.2146,6.2146,6.1757,6.1757,26,0
20140430,6.1952,6.1952,6.1077,6.1077,740,0
20140502,6.1757,6.1757,6.0979,6.0979,49,0
20140505,6.1757,6.1757,5.9812,5.9812,1284,0
20140506,6.0104,6.0104,5.9034,5.9812,411,0
20140507,5.9812,5.9812,5.6311,5.8256,8635,0
20140508,5.8062,5.8062,5.7186,5.7381,72207,0
20140509,5.67,5.67,5.4949,5.4949,785,0
20140512,5.3977,5.4658,5.3588,5.4658,2003,0
20140513,5.4463,5.4949,5.4463,5.4463,64315,0
20140514,5.5047,5.5436,5.4463,5.4463,1545,0
20140515,5.5922,5.777,5.5922,5.6992,6338,0
20140516,5.5922,5.7575,5.5825,5.6603,1850,0
20140519,5.6603,5.6992,5.5727,5.5727,1729,0
20140520,5.5727,5.6019,5.4658,5.6019,4392,0
20140521,5.456,5.6019,5.4463,5.6019,4927,0
20140522,5.5825,5.6505,5.4755,5.6505,2630,0
20140523,5.6505,5.6505,5.5436,5.5922,28223,0
20140526,5.6797,5.6797,5.5922,5.5922,1902,0
20140527,5.5922,5.6505,5.5922,5.6408,634,0
20140528,5.6408,5.7575,5.6408,5.6505,9976,0
20140529,5.6311,5.6992,5.6311,5.6603,360,0
20140530,5.67,5.67,5.67,5.67,51,0
20140602,5.7478,5.7478,5.6895,5.6895,360,0
20140603,5.7575,5.7867,5.5825,5.6895,9767,0
20140604,5.6895,5.7381,5.6895,5.7381,1031,0
20140605,5.7186,5.8353,5.7186,5.7867,5749,0
20140606,5.8353,5.8353,5.7381,5.8353,196,0
20140609,5.8353,5.8353,5.7867,5.7867,428,0
20140610,5.8353,5.8353,5.7964,5.7964,4313,0
20140611,5.7964,5.8159,5.7478,5.7478,3913,0
20140612,5.7673,5.7673,5.7284,5.7284,411,0
20140613,5.6214,5.67,5.6214,5.67,52,0
20140616,5.6116,5.6116,5.6116,5.6116,103,0
20140617,5.6116,5.6116,5.6116,5.6116,293,0
20140618,5.6116,5.6408,5.6116,5.6408,972,0
20140620,5.6019,5.6408,5.5436,5.6408,1903,0
20140623,5.5727,5.7381,5.5727,5.7381,734,0
20140624,5.8353,5.8353,5.7186,5.7186,1347,0
20140625,5.67,5.67,5.4658,5.67,2961,0
20140626,6.3,6.3,5.88,5.97,1371,0
20140627,5.97,5.97,5.9,5.9,371,0
20140630,5.85,5.85,5.73,5.84,117,0
20140701,5.73,5.73,5.65,5.65,3388,0
20140703,5.6,5.68,5.55,5.65,1197,0
20140704,5.65,5.65,5.55,5.55,440,0
20140707,5.54,5.54,5.35,5.48,943,0
20140708,5.49,5.49,5.4,5.45,580,0
20140710,5.37,5.37,5.25,5.34,2575,0
20140711,5.22,5.37,5.2,5.37,1868,0
20140714,5.25,5.45,5.25,5.4,3623,0
20140715,5.4,5.4,5.28,5.35,2825,0
20140716,5.34,5.39,5.26,5.39,2065,0
20140717,5.2,5.39,5.2,5.39,1180,0
20140718,5.39,5.43,5.25,5.43,1424,0
20140721,5.43,5.43,5.3,5.39,1060,0
20140722,5.31,5.37,5.22,5.37,1503,0
20140723,5.34,5.34,5.25,5.25,1466,0
20140724,5.22,5.24,5.22,5.22,1057,0
20140725,5.16,5.18,5.07,5.11,3591,0
20140728,5.15,5.2,5.15,5.15,1136,0
20140729,5.15,5.28,5.05,5.28,1120,0
20140730,5.23,5.23,5.23,5.23,150,0
20140731,5.19,5.19,5.19,5.19,50,0
20140801,5.12,5.2,5.08,5.14,1082,0
20140804,5.15,5.15,5.08,5.13,298,0
20140805,5.2,5.34,4.96,4.97,5418,0
20140806,4.96,4.99,4.88,4.88,4447,0
20140807,4.88,4.88,4.7,4.7,865,0
20140808,4.7,4.7,4.57,4.62,2001,0
20140811,4.87,4.87,4.67,4.67,26046,0
20140812,4.75,4.75,4.72,4.72,110,0
20140813,4.66,4.74,4.66,4.74,539,0
20140814,4.58,4.68,4.49,4.68,60372,0
20140818,4.68,4.68,4.65,4.65,1772,0
20140819,4.66,4.67,4.66,4.67,300,0
20140820,4.69,4.71,4.69,4.71,152,0
20140821,4.71,4.97,4.7,4.97,1874,0
20140822,5.01,5.18,4.94,4.95,12621,0
20140825,5.03,5.28,5.03,5.14,18347,0
20140826,5.17,5.53,5.17,5.25,21243,0
20140827,5.29,5.53,5.29,5.52,7705,0
20140828,5.53,5.53,5.09,5.25,13425,0
20140829,5.25,5.25,5.1,5.19,4213,0
20140901,5.19,5.2,5.07,5.07,2374,0
20140902,5.07,5.08,5.05,5.06,11317,0
20140903,5.09,5.22,5.09,5.13,1870,0
20140904,5.16,5.24,5.16,5.16,1547,0
20140905,5.2,5.2,5,5.08,5892,0
20140908,5.02,5.19,5.02,5.19,2650,0
20140909,5.19,5.33,5.12,5.33,10550,0
20140910,5.3,5.5,5.3,5.47,6151,0
20140911,5.44,5.44,5.05,5.11,34499,0
20140912,5.2,5.25,5.13,5.13,3992,0
20140915,5.18,5.27,5.18,5.27,1500,0
20140916,5.27,5.42,5.25,5.3,11879,0
20140917,5.39,5.39,5.3,5.3,3453,0
20140918,5.26,5.31,5.25,5.31,3696,0
20140919,5.38,5.41,5.33,5.4,5417,0
20140922,5.39,5.4,5.39,5.4,1348,0
20140923,5.35,5.35,5.06,5.22,6677,0
20140924,5.18,5.18,5.05,5.05,5051,0
20140925,5.06,5.23,5.05,5.23,6006,0
20140929,5.2,5.2,5.18,5.18,343,0
20140930,5.18,5.25,5.15,5.25,1731,0
20141001,5.17,5.17,5.13,5.13,2226,0
20141002,5.09,5.1,5.08,5.08,3243,0
20141003,5.08,5.2,5.08,5.2,379,0
20141006,5.2,5.2,5.1,5.11,2637,0
20141007,5.1,5.15,5.1,5.12,400,0
20141008,5.12,5.12,5.12,5.12,50,0
20141009,5.11,5.11,4.97,4.97,4431,0
20141010,5,5,4.6,4.75,3824,0
20141013,4.75,4.8,4.75,4.79,553,0
20141014,4.8,4.8,4.73,4.75,1277,0
20141015,4.8,4.8,4.68,4.69,1170,0
20141016,4.72,4.72,4.5,4.55,5423,0
20141017,4.58,4.71,4.55,4.7,31840,0
20141020,4.7,4.7,4.66,4.66,6820,0
20141021,4.65,4.7,4.65,4.7,2275,0
20141022,4.65,4.76,4.65,4.76,10639,0
20141023,4.74,4.74,4.68,4.68,6257,0
20141024,4.75,4.9,4.75,4.8,10947,0
20141027,4.8,4.88,4.8,4.86,983,0
20141028,4.82,5.02,4.82,4.99,8930,0
20141029,5.09,5.09,4.95,4.95,3204,0
20141030,5.03,5.03,4.91,4.99,155,0
20141031,4.96,4.96,4.91,4.91,739,0
20141103,4.91,4.95,4.89,4.89,845,0
20141104,4.89,4.9,4.87,4.87,1638,0
20141105,4.9,4.9,4.9,4.9,1252,0
20141106,4.87,5,4.85,4.85,6479,0
20141107,4.94,4.94,4.8,4.8,925,0
20141110,4.76,4.76,4.74,4.75,1625,0
20141112,4.75,4.89,4.75,4.85,4466,0
20141113,4.78,4.79,4.78,4.79,100,0
20141114,4.8,4.8,4.79,4.79,484,0
20141117,4.8,4.8,4.67,4.67,3793,0
20141118,4.68,4.68,4.67,4.67,200,0
20141119,4.7,4.7,4.59,4.59,2365,0
20141120,4.59,4.59,4.4,4.4,3671,0
20141121,4.5,4.5,4.28,4.28,7224,0
20141124,4.28,4.29,4.15,4.17,11177,0
20141125,4.24,4.24,4,4,4441,0
20141126,4.01,4.15,4.01,4.12,5188,0
20141127,4.12,4.15,4.1,4.15,768,0
20141128,4.14,4.2,4.1,4.15,3572,0
20141201,4.12,4.19,4.1,4.19,971,0
20141202,4.18,4.28,4.18,4.21,2598,0
20141203,4.35,4.48,4.34,4.48,10557,0
20141204,4.61,4.65,4.54,4.6,7446,0
20141205,4.6,4.72,4.4,4.51,6338,0
20141208,4.4,4.4,4.1,4.39,28076,0
20141209,4.31,4.33,4.3,4.32,9022,0
20141210,4.25,4.25,4.05,4.24,20555,0
20141211,4.1,4.2,4.1,4.2,11905,0
20141212,4.11,4.2,4.09,4.2,12074,0
20141215,4.24,4.24,4.24,4.24,600,0
20141216,4.15,4.15,4.05,4.05,2686,0
20141217,4.05,4.05,4,4,14934,0
20141218,4,4.08,4,4,14030,0
20141219,4.08,4.08,4.02,4.02,300,0
20141222,4.06,4.06,3.87,3.96,11942,0
20141223,3.96,3.96,3.69,3.9,26489,0
20141229,3.86,3.99,3.86,3.94,3733,0
20141230,4,4.02,3.97,4.02,1806,0
