Date,Open,High,Low,Close,Volume,OpenInt
20090107,17.117,17.117,17.117,17.117,0,0
20090108,16.533,16.825,16.533,16.825,0,0
20090112,16.728,17.895,16.728,16.922,0,0
20090113,16.533,17.895,16.533,17.798,0,0
20090114,17.798,18.284,17.02,18.09,0,0
20090115,17.409,18.09,17.409,17.409,0,0
20090116,17.02,17.798,17.02,17.117,0,0
20090119,18.187,18.187,18.187,18.187,0,0
20090120,16.922,17.506,16.631,17.506,0,0
20090121,17.506,17.506,16.825,16.825,0,0
20090122,16.728,17.214,16.728,17.117,0,0
20090123,17.409,17.409,16.436,17.409,0,0
20090126,17.506,17.506,16.144,16.339,0,0
20090127,16.339,16.339,15.95,16.242,0,0
20090128,16.339,16.339,16.242,16.339,0,0
20090129,16.144,16.242,16.144,16.242,0,0
20090130,16.047,16.047,15.853,15.95,0,0
20090202,16.144,16.144,13.908,14.783,0,0
20090203,14.783,14.783,14.102,14.102,0,0
20090204,14.102,14.102,13.421,13.616,0,0
20090205,12.643,13.81,11.962,13.519,0,0
20090206,13.519,16.242,13.519,14.394,0,0
20090209,13.616,14.491,13.616,14.491,0,0
20090210,14.88,15.366,14.102,15.366,0,0
20090211,15.755,16.242,15.269,15.366,0,0
20090212,15.755,15.755,15.755,15.755,0,0
20090213,15.755,15.95,15.755,15.853,0,0
20090216,15.464,15.658,14.005,14.102,0,0
20090217,13.616,13.616,12.74,12.74,0,0
20090218,12.449,12.449,12.157,12.351,0,0
20090219,12.643,12.643,12.643,12.643,0,0
20090220,12.643,12.643,12.643,12.643,0,0
20090223,12.06,12.643,12.06,12.643,0,0
20090224,12.643,13.908,11.768,13.81,0,0
20090225,13.421,14.977,13.421,14.102,0,0
20090226,14.199,14.783,14.199,14.783,0,0
20090227,14.102,14.588,14.102,14.588,0,0
20090302,14.297,14.297,6.5161,6.5161,0,0
20090303,6.2244,6.3216,6.1271,6.2244,0,0
20090304,6.0298,6.4189,6.0298,6.4189,0,0
20090305,6.4189,6.7106,6.3216,6.7106,0,0
20090306,6.5161,6.7106,6.1271,6.7106,0,0
20090309,6.3216,6.3216,6.3216,6.3216,0,0
20090310,6.3216,6.3216,5.9326,5.9326,0,0
20090311,5.9326,6.0298,5.9326,6.0298,0,0
20090312,5.9326,6.0298,5.9326,6.0298,0,0
20090313,5.9326,6.8079,5.9326,6.8079,0,0
20090316,6.1271,6.6134,6.1271,6.4189,0,0
20090317,6.8079,6.8079,6.6134,6.6134,0,0
20090318,6.8079,6.8079,6.7106,6.8079,0,0
20090319,6.8079,7.0024,6.8079,6.9051,0,0
20090320,7.0024,7.0024,7.0024,7.0024,0,0
20090323,7.0997,7.4887,7.0024,7.4887,0,0
20090324,7.4887,7.5859,7.4887,7.4887,0,0
20090325,7.5859,7.5859,7.3914,7.3914,0,0
20090326,7.7804,7.7804,7.7804,7.7804,0,0
20090327,7.7804,7.7804,7.6832,7.6832,0,0
20090330,7.6832,7.6832,7.6832,7.6832,0,0
20090331,7.6832,7.6832,7.6832,7.6832,0,0
20090401,7.6832,7.6832,7.2942,7.2942,0,0
20090402,7.7804,7.7804,7.7804,7.7804,0,0
20090403,7.6832,7.7804,7.6832,7.7804,0,0
20090406,7.7804,7.8777,7.7804,7.7804,0,0
20090407,7.8777,7.975,7.8777,7.8777,0,0
20090408,7.8777,7.975,7.7804,7.975,0,0
20090409,8.0722,8.364,8.0722,8.364,0,0
20090414,8.364,8.364,7.975,7.975,0,0
20090415,7.8777,8.0722,7.8777,8.0722,0,0
20090416,7.8777,8.364,7.8777,8.364,0,0
20090417,8.1695,8.364,8.1695,8.364,0,0
20090420,8.2667,8.2667,7.8777,7.8777,0,0
20090421,7.8777,8.1695,7.8777,7.975,0,0
20090422,7.975,8.6557,7.975,8.6557,0,0
20090423,8.753,9.2393,8.753,9.142,0,0
20090424,9.2393,9.4338,9.142,9.4338,0,0
20090427,9.531,9.531,8.6557,9.142,0,0
20090428,9.531,12.449,9.531,11.573,0,0
20090429,12.935,12.935,11.573,12.06,0,0
20090430,12.06,12.06,11.671,11.865,0,0
20090504,12.06,12.06,11.671,11.865,0,0
20090505,12.06,12.254,12.06,12.06,0,0
20090506,12.06,12.06,11.962,12.06,0,0
20090507,12.06,12.06,11.573,11.865,0,0
20090508,11.573,11.768,11.573,11.768,0,0
20090511,11.962,12.254,11.962,12.157,0,0
20090512,12.157,12.449,12.06,12.06,0,0
20090513,12.06,12.06,11.476,11.573,0,0
20090514,11.476,11.573,11.476,11.476,0,0
20090515,11.573,11.573,11.184,11.184,0,0
20090518,11.476,11.865,10.99,10.99,0,0
20090519,11.282,11.282,11.282,11.282,0,0
20090520,11.476,11.476,11.476,11.476,0,0
20090521,11.184,11.573,10.99,11.573,0,0
20090522,11.573,11.573,11.379,11.573,0,0
20090525,11.671,11.671,11.476,11.573,0,0
20090526,11.379,11.671,11.379,11.671,0,0
20090527,11.671,11.671,11.476,11.476,0,0
20090528,11.476,11.476,11.476,11.476,0,0
20090529,11.573,11.573,11.476,11.573,0,0
20090601,11.573,12.06,11.573,11.962,0,0
20090602,12.254,12.254,11.962,11.962,0,0
20090603,11.962,12.254,11.962,11.962,0,0
20090604,12.06,12.254,11.962,12.254,0,0
20090605,12.351,12.351,12.254,12.351,0,0
20090608,12.351,12.449,12.254,12.449,0,0
20090609,12.449,13.324,12.449,13.324,0,0
20090610,13.324,13.81,13.324,13.81,0,0
20090612,13.032,14.102,13.032,14.102,0,0
20090615,13.324,13.616,13.13,13.616,0,0
20090616,13.616,13.616,13.13,13.616,0,0
20090617,13.908,13.908,13.227,13.81,0,0
20090618,13.81,13.81,13.227,13.227,0,0
20090619,12.935,12.935,12.254,12.546,0,0
20090622,12.838,12.838,12.838,12.838,0,0
20090623,11.962,12.74,11.962,12.449,0,0
20090624,12.351,12.351,11.962,12.254,0,0
20090625,12.254,12.546,12.254,12.254,0,0
20090626,12.546,12.546,12.351,12.449,0,0
20090629,12.449,12.449,12.157,12.157,0,0
20090630,12.157,14.199,12.06,13.81,0,0
20090701,13.324,14.102,13.324,14.102,0,0
20090702,14.102,14.102,13.908,14.005,0,0
20090703,14.005,14.005,13.324,13.713,0,0
20090706,13.324,13.81,13.227,13.81,0,0
20090707,13.324,13.908,13.13,13.519,0,0
20090708,13.324,13.324,13.032,13.13,0,0
20090709,13.421,13.713,13.13,13.519,0,0
20090710,13.519,13.519,13.227,13.324,0,0
20090713,13.81,13.81,13.519,13.519,0,0
20090714,13.421,13.421,13.421,13.421,0,0
20090715,13.421,13.421,12.935,13.324,0,0
20090716,12.838,13.713,12.838,13.713,0,0
20090717,13.421,13.421,13.421,13.421,0,0
20090720,13.713,13.713,13.421,13.713,0,0
20090721,13.713,14.199,13.713,13.908,0,0
20090722,14.102,14.199,14.102,14.199,0,0
20090723,14.199,14.199,13.908,14.199,0,0
20090724,14.199,14.199,14.199,14.199,0,0
20090727,14.199,14.199,13.616,14.102,0,0
20090728,14.102,14.102,13.713,14.102,0,0
20090729,13.421,14.102,13.421,14.102,0,0
20090730,14.102,14.102,13.519,14.102,0,0
20090731,13.908,13.908,13.616,13.616,0,0
20090803,13.713,13.713,13.324,13.324,0,0
20090804,13.324,13.81,13.324,13.421,0,0
20090805,13.421,13.519,13.421,13.519,0,0
20090806,13.519,13.81,13.519,13.81,0,0
20090807,13.616,13.81,13.616,13.81,0,0
20090810,13.908,14.102,13.81,14.102,0,0
20090811,13.81,14.88,13.81,14.783,0,0
20090812,14.686,14.783,14.102,14.686,0,0
20090813,14.686,14.686,14.297,14.394,0,0
20090814,14.686,14.686,14.394,14.394,0,0
20090817,14.394,14.783,14.102,14.783,0,0
20090818,14.783,14.783,14.102,14.783,0,0
20090819,14.686,14.783,14.686,14.783,0,0
20090820,15.172,16.047,14.88,16.047,0,0
20090821,16.631,16.728,16.631,16.728,0,0
20090824,16.728,16.728,15.853,15.95,0,0
20090825,16.242,17.506,16.242,17.506,0,0
20090826,17.992,19.159,17.506,18.576,0,0
20090827,18.576,18.576,17.506,17.506,0,0
20090828,18.09,19.354,17.506,19.354,0,0
20090831,19.354,19.354,18.187,18.868,0,0
20090901,18.868,19.451,18.479,18.868,0,0
20090902,18.479,18.868,17.409,17.701,0,0
20090903,17.701,17.701,17.409,17.409,0,0
20090904,17.506,17.506,17.409,17.409,0,0
20090907,17.02,17.02,16.922,16.922,0,0
20090908,17.02,17.798,17.02,17.798,0,0
20090909,18.284,18.284,17.798,17.798,0,0
20090910,18.868,18.868,16.922,17.02,0,0
20090911,17.02,17.214,16.631,16.728,0,0
20090914,17.409,17.409,16.631,16.631,0,0
20090915,16.631,17.311,16.631,17.311,0,0
20090916,17.506,17.603,17.311,17.311,0,0
20090917,17.506,17.603,17.311,17.506,0,0
20090918,16.922,17.117,16.922,17.117,0,0
20090921,17.409,17.409,17.117,17.409,0,0
20090922,17.311,17.409,17.311,17.409,0,0
20090923,17.02,17.02,17.02,17.02,0,0
20090924,16.922,17.311,16.728,17.311,0,0
20090925,17.02,17.02,16.728,16.728,0,0
20090928,16.339,16.728,16.144,16.242,0,0
20090929,15.95,15.95,15.95,15.95,0,0
20090930,15.95,16.144,15.95,16.144,0,0
20091001,15.755,16.144,15.658,15.658,0,0
20091002,15.658,15.658,15.658,15.658,0,0
20091005,15.658,15.658,15.658,15.658,0,0
20091006,15.755,16.533,15.755,16.533,0,0
20091007,16.631,17.117,16.631,16.728,0,0
20091008,16.922,16.922,16.728,16.728,0,0
20091009,17.117,17.409,16.728,17.311,0,0
20091012,17.311,17.311,17.311,17.311,0,0
20091013,17.311,17.603,17.311,17.506,0,0
20091014,17.506,17.506,17.311,17.409,0,0
20091015,17.603,17.603,17.506,17.506,0,0
20091016,17.506,17.506,17.409,17.506,0,0
20091019,17.506,17.603,17.117,17.506,0,0
20091020,17.117,17.117,16.631,17.02,0,0
20091021,15.755,16.922,15.755,16.339,0,0
20091022,16.339,16.631,16.339,16.631,0,0
20091023,16.242,16.242,16.242,16.242,0,0
20091026,16.631,16.631,15.853,15.853,0,0
20091027,15.561,15.755,15.561,15.755,0,0
20091028,15.464,15.853,15.464,15.755,0,0
20091029,15.464,15.755,15.464,15.755,0,0
20091030,15.755,16.631,15.755,16.533,0,0
20091102,16.533,16.533,16.242,16.339,0,0
20091103,16.339,16.339,16.242,16.242,0,0
20091104,16.242,16.436,16.242,16.436,0,0
20091105,16.533,16.533,16.047,16.047,0,0
20091106,16.242,16.242,15.658,15.755,0,0
20091109,15.95,15.95,15.755,15.755,0,0
20091110,16.047,16.047,15.561,15.658,0,0
20091112,15.755,15.853,15.561,15.561,0,0
20091113,15.366,17.506,15.366,17.506,0,0
20091116,17.701,17.701,17.311,17.506,0,0
20091117,17.311,17.311,17.311,17.311,0,0
20091118,17.992,17.992,17.506,17.506,0,0
20091119,17.506,17.506,17.506,17.506,0,0
20091120,17.506,17.506,17.311,17.311,0,0
20091123,17.506,17.506,17.506,17.506,0,0
20091124,17.311,17.506,17.214,17.506,0,0
20091125,17.506,17.506,17.506,17.506,0,0
20091126,17.506,17.506,16.922,17.02,0,0
20091127,17.603,17.603,16.533,16.533,0,0
20091130,16.728,17.506,16.728,17.506,0,0
20091201,17.506,17.506,17.506,17.506,0,0
20091202,17.506,17.506,16.436,16.825,0,0
20091203,17.311,17.603,17.02,17.02,0,0
20091204,16.825,17.02,16.825,17.02,0,0
20091207,16.922,17.02,16.922,17.02,0,0
20091208,17.02,17.117,16.631,16.631,0,0
20091209,16.728,16.728,16.339,16.436,0,0
20091210,16.436,16.533,16.339,16.339,0,0
20091211,16.728,16.728,16.242,16.436,0,0
20091214,16.242,16.436,16.242,16.436,0,0
20091215,16.339,16.339,15.755,16.047,0,0
20091216,16.242,16.242,15.755,15.755,0,0
20091217,16.242,16.242,15.075,15.561,0,0
20091218,15.561,16.728,15.561,16.436,0,0
20091221,16.922,17.311,16.436,17.214,0,0
20091222,17.409,17.506,17.214,17.311,0,0
20091223,17.506,17.506,16.728,16.728,0,0
20091228,16.631,16.728,16.436,16.533,0,0
20091229,17.117,17.506,16.533,17.409,0,0
20091230,17.506,17.992,17.311,17.506,0,0
20091231,17.701,17.701,16.922,17.02,0,0
20100104,17.506,17.798,17.02,17.798,0,0
20100105,17.992,17.992,17.895,17.895,0,0
20100106,17.895,17.895,17.798,17.895,0,0
20100107,17.798,17.798,17.603,17.798,0,0
20100108,17.895,18.09,17.895,17.895,0,0
20100111,18.187,18.187,17.798,17.992,0,0
20100112,18.187,18.187,17.214,17.992,0,0
20100113,17.992,17.992,17.798,17.798,0,0
20100114,17.798,17.798,17.506,17.506,0,0
20100115,17.506,18.09,17.506,18.09,0,0
20100118,17.895,18.284,17.895,17.992,0,0
20100119,18.187,18.284,17.895,18.284,0,0
20100120,18.284,18.284,17.992,18.284,0,0
20100121,18.381,18.381,17.798,17.992,0,0
20100122,17.992,17.992,17.506,17.506,0,0
20100125,17.603,18.09,17.603,17.603,0,0
20100126,17.603,17.603,17.603,17.603,0,0
20100127,17.992,17.992,17.603,17.603,0,0
20100128,17.701,18.09,17.506,18.09,0,0
20100129,18.09,18.09,17.992,17.992,0,0
20100201,17.214,18.09,17.214,18.09,0,0
20100202,17.992,17.992,17.992,17.992,0,0
20100203,17.992,18.09,17.992,18.09,0,0
20100204,18.09,18.09,17.506,17.506,0,0
20100205,17.506,17.992,17.506,17.895,0,0
20100208,17.895,17.895,17.409,17.798,0,0
20100209,17.992,17.992,17.992,17.992,0,0
20100210,17.992,18.187,17.506,18.187,0,0
20100211,18.187,18.187,17.992,17.992,0,0
20100212,17.992,18.09,17.992,18.09,0,0
20100215,18.09,18.284,17.506,18.284,0,0
20100216,18.381,18.479,18.381,18.479,0,0
20100217,18.479,19.159,18.284,19.159,0,0
20100218,19.548,19.937,19.548,19.548,0,0
20100219,19.548,19.548,19.548,19.548,0,0
20100222,19.84,19.84,19.257,19.451,0,0
20100223,19.451,19.451,19.257,19.354,0,0
20100224,19.646,20.229,19.062,19.743,0,0
20100225,20.229,20.229,19.646,20.229,0,0
20100226,19.159,20.229,15.853,15.853,0,0
20100301,15.755,15.755,15.561,15.755,0,0
20100302,14.88,15.853,14.88,15.755,0,0
20100303,15.95,15.95,15.366,15.464,0,0
20100304,15.269,16.047,15.269,15.95,0,0
20100305,16.242,16.242,15.95,15.95,0,0
20100308,15.95,16.436,15.366,16.436,0,0
20100309,16.047,16.825,16.047,16.825,0,0
20100310,16.825,16.825,16.631,16.728,0,0
20100311,16.728,17.02,16.728,16.922,0,0
20100312,16.922,16.922,16.825,16.922,0,0
20100315,16.922,16.922,16.825,16.825,0,0
20100316,17.117,17.117,17.02,17.02,0,0
20100317,17.117,17.311,17.117,17.117,0,0
20100318,17.506,17.506,17.02,17.117,0,0
20100319,16.631,16.825,16.631,16.728,0,0
20100322,16.728,16.728,16.047,16.047,0,0
20100323,16.047,16.047,15.172,15.269,0,0
20100324,15.269,15.269,14.783,14.977,0,0
20100325,15.172,15.172,15.172,15.172,0,0
20100326,15.269,15.658,15.269,15.366,0,0
20100329,15.269,16.825,15.269,16.047,0,0
20100330,16.631,16.922,16.242,16.728,0,0
20100331,16.728,16.922,16.728,16.728,0,0
20100401,16.728,17.02,16.533,17.02,0,0
20100406,16.436,16.922,16.436,16.825,0,0
20100407,16.339,16.922,16.339,16.825,0,0
20100408,16.922,16.922,16.631,16.825,0,0
20100409,16.825,16.825,16.825,16.825,0,0
20100412,16.825,16.825,16.339,16.339,0,0
20100413,15.95,16.144,15.658,16.144,0,0
20100414,15.755,16.533,15.755,16.533,0,0
20100415,16.825,16.825,16.047,16.047,0,0
20100416,15.755,15.755,15.755,15.755,0,0
20100419,15.464,15.464,15.075,15.075,0,0
20100420,15.075,15.561,15.075,15.464,0,0
20100421,15.172,15.561,14.977,15.075,0,0
20100422,14.977,15.172,14.977,15.172,0,0
20100423,15.172,15.95,15.172,15.95,0,0
20100426,15.95,15.95,15.464,15.755,0,0
20100427,15.561,15.561,15.075,15.366,0,0
20100428,14.88,14.88,14.783,14.783,0,0
20100429,15.853,15.853,14.394,14.686,0,0
20100430,14.686,14.783,14.394,14.394,0,0
20100504,14.394,14.394,14.102,14.102,0,0
20100505,14.199,14.686,14.199,14.394,0,0
20100506,14.394,14.783,14.394,14.783,0,0
20100507,14.394,14.394,14.297,14.297,0,0
20100510,14.783,14.977,14.394,14.394,0,0
20100511,14.394,14.588,14.394,14.588,0,0
20100512,14.588,14.588,14.394,14.394,0,0
20100513,14.88,14.88,13.908,13.908,0,0
20100514,13.908,13.908,13.324,13.519,0,0
20100517,13.616,13.616,13.324,13.324,0,0
20100518,13.713,13.81,13.324,13.81,0,0
20100519,13.421,13.81,13.421,13.713,0,0
20100520,13.81,13.81,13.227,13.227,0,0
20100521,13.032,13.032,12.449,13.032,0,0
20100524,12.74,12.74,12.449,12.449,0,0
20100525,12.449,12.546,12.06,12.06,0,0
20100526,12.838,12.838,12.351,12.351,0,0
20100527,12.546,12.546,11.962,11.962,0,0
20100528,12.351,12.838,12.351,12.643,0,0
20100531,12.643,12.643,12.643,12.643,0,0
20100601,12.935,13.227,12.643,12.643,0,0
20100602,12.935,12.935,12.643,12.643,0,0
20100604,12.643,13.13,12.643,13.13,0,0
20100607,13.227,13.421,13.227,13.227,0,0
20100608,13.227,13.227,13.227,13.227,0,0
20100609,13.519,13.519,13.032,13.032,0,0
20100610,12.838,13.13,12.643,13.13,0,0
20100611,13.13,13.13,13.13,13.13,0,0
20100614,12.838,12.838,12.643,12.643,0,0
20100615,12.643,12.74,12.643,12.74,0,0
20100616,13.032,13.421,12.643,12.643,0,0
20100617,12.643,12.74,12.643,12.74,0,0
20100618,12.74,12.74,12.643,12.643,0,0
20100621,12.643,12.643,12.643,12.643,0,0
20100622,12.643,12.643,12.643,12.643,0,0
20100623,13.032,13.032,12.643,12.643,0,0
20100624,12.643,12.643,12.643,12.643,0,0
20100625,12.935,13.13,12.643,13.13,0,0
20100628,12.838,12.838,12.643,12.643,0,0
20100629,12.643,12.643,12.643,12.643,0,0
20100630,12.643,12.643,12.643,12.643,0,0
20100702,12.643,12.935,12.643,12.935,0,0
20100705,12.935,12.935,12.935,12.935,0,0
20100706,12.935,13.616,12.935,13.13,0,0
20100707,13.13,13.519,13.13,13.519,0,0
20100708,13.519,13.519,13.324,13.421,0,0
20100709,13.908,14.783,13.908,14.297,0,0
20100712,14.88,14.88,14.588,14.88,0,0
20100713,14.88,15.075,14.88,15.075,0,0
20100714,15.172,15.172,14.977,15.172,0,0
20100715,15.172,15.269,15.172,15.269,0,0
20100716,15.269,15.269,15.269,15.269,0,0
20100719,15.269,15.366,15.172,15.366,0,0
20100720,15.366,15.366,15.075,15.075,0,0
20100721,14.977,14.977,14.88,14.977,0,0
20100722,14.977,14.977,14.394,14.88,0,0
20100723,14.88,14.977,14.88,14.977,0,0
20100726,15.366,15.366,15.075,15.075,0,0
20100727,15.269,15.269,15.269,15.269,0,0
20100728,15.366,15.366,15.269,15.366,0,0
20100729,15.366,15.464,15.366,15.464,0,0
20100730,15.269,15.561,15.269,15.464,0,0
20100802,15.269,15.464,15.172,15.464,0,0
20100803,15.561,15.561,15.561,15.561,0,0
20100804,15.561,15.658,15.561,15.658,0,0
20100805,15.658,15.658,15.464,15.658,0,0
20100806,15.658,15.658,15.464,15.561,0,0
20100809,15.561,15.561,15.269,15.366,0,0
20100810,15.561,15.561,15.366,15.464,0,0
20100811,15.366,15.366,15.269,15.366,0,0
20100812,15.366,15.366,15.269,15.269,0,0
20100813,15.366,15.366,14.88,14.977,0,0
20100816,14.977,14.977,14.783,14.88,0,0
20100817,14.783,14.88,14.491,14.88,0,0
20100818,14.88,14.88,14.88,14.88,0,0
20100819,15.269,15.269,15.269,15.269,0,0
20100820,15.561,15.561,15.075,15.075,0,0
20100823,14.88,14.88,14.686,14.686,0,0
20100824,14.686,14.686,14.102,14.102,0,0
20100825,14.005,14.102,14.005,14.102,0,0
20100826,14.005,14.297,14.005,14.199,0,0
20100827,14.199,14.783,14.199,14.783,0,0
20100830,14.88,14.88,14.491,14.88,0,0
20100831,14.686,15.269,14.297,15.172,0,0
20100901,15.075,15.075,14.394,15.075,0,0
20100902,15.075,15.075,14.686,15.075,0,0
20100903,15.172,15.172,13.616,13.616,0,0
20100906,13.81,13.81,13.713,13.713,0,0
20100907,13.713,13.713,13.324,13.324,0,0
20100908,13.227,13.616,13.227,13.616,0,0
20100909,13.227,13.519,13.13,13.421,0,0
20100910,13.421,13.421,13.032,13.13,0,0
20100913,13.13,13.13,13.032,13.032,0,0
20100914,13.032,13.032,12.74,12.74,0,0
20100915,12.546,12.74,12.546,12.546,0,0
20100916,12.546,13.032,12.546,13.032,0,0
20100917,13.13,13.13,13.032,13.13,0,0
20100920,13.13,13.324,12.74,13.324,0,0
20100921,13.324,13.519,13.13,13.421,0,0
20100922,13.519,13.519,12.74,13.421,0,0
20100923,13.324,13.324,12.74,13.227,0,0
20100924,13.421,13.421,12.74,13.324,0,0
20100927,13.324,13.324,12.74,13.13,0,0
20100928,13.324,13.324,12.74,13.13,0,0
20100929,13.13,13.13,12.74,13.032,0,0
20100930,12.74,13.324,12.74,13.324,0,0
20101001,13.519,13.519,12.74,13.227,0,0
20101004,13.324,13.324,12.74,12.935,0,0
20101005,12.935,13.032,12.74,13.032,0,0
20101006,13.032,13.616,12.74,13.324,0,0
20101007,13.519,13.519,13.421,13.421,0,0
20101008,13.324,13.519,13.324,13.519,0,0
20101011,13.616,13.616,13.227,13.519,0,0
20101012,13.519,13.519,12.74,13.032,0,0
20101013,12.838,13.13,12.838,13.032,0,0
20101014,13.13,13.13,12.74,13.032,0,0
20101015,13.032,13.032,13.032,13.032,0,0
20101018,13.032,13.032,12.74,13.032,0,0
20101019,13.032,13.032,12.838,13.032,0,0
20101020,13.032,13.032,12.74,12.74,0,0
20101021,12.74,12.935,12.643,12.935,0,0
20101022,12.935,12.935,12.74,12.935,0,0
20101025,12.935,12.935,12.546,12.546,0,0
20101026,12.74,12.74,12.546,12.74,0,0
20101027,12.74,12.74,12.643,12.74,0,0
20101028,12.838,12.838,12.643,12.838,0,0
20101029,12.838,12.838,12.546,12.838,0,0
20101102,12.838,13.032,12.838,12.935,0,0
20101103,13.13,13.519,13.13,13.519,0,0
20101104,13.616,13.81,13.519,13.81,0,0
20101105,13.81,13.81,13.519,13.713,0,0
20101108,13.713,13.81,13.227,13.227,0,0
20101109,13.616,14.297,13.616,14.005,0,0
20101110,14.977,14.977,14.686,14.783,0,0
20101112,14.686,14.783,12.449,12.449,0,0
20101115,12.449,12.449,12.449,12.449,0,0
20101116,12.449,12.449,12.254,12.351,0,0
20101117,12.254,12.254,12.254,12.254,0,0
20101118,12.254,12.351,12.06,12.254,0,0
20101119,12.254,12.254,12.157,12.157,0,0
20101122,12.157,12.254,12.06,12.157,0,0
20101123,12.157,12.157,11.671,11.962,0,0
20101124,12.254,12.449,12.254,12.254,0,0
20101125,12.546,12.546,12.254,12.254,0,0
20101126,12.351,12.351,12.254,12.351,0,0
20101129,12.449,12.643,12.254,12.254,0,0
20101130,12.254,12.254,11.962,12.254,0,0
20101201,12.254,12.254,11.671,12.06,0,0
20101202,12.254,12.254,12.06,12.157,0,0
20101203,12.157,12.254,12.157,12.254,0,0
20101206,12.254,12.351,12.157,12.157,0,0
20101207,12.351,12.351,12.157,12.157,0,0
20101208,12.254,12.254,12.06,12.06,0,0
20101209,12.157,12.157,12.06,12.06,0,0
20101210,12.06,12.06,11.768,11.865,0,0
20101213,11.865,11.865,11.865,11.865,0,0
20101214,11.962,12.254,11.865,12.254,0,0
20101215,12.351,12.351,12.06,12.06,0,0
20101216,12.06,12.254,12.06,12.157,0,0
20101217,12.157,12.157,11.962,11.962,0,0
20101220,11.962,12.06,11.865,12.06,0,0
20101221,12.06,12.06,11.962,12.06,0,0
20101222,12.157,12.157,11.962,12.06,0,0
20101223,12.06,12.06,11.865,11.962,0,0
20101227,12.157,12.157,11.865,11.962,0,0
20101228,11.865,12.06,11.865,12.06,0,0
20101229,12.06,12.06,11.962,12.06,0,0
20101230,12.06,12.351,12.06,12.351,0,0
20101231,12.351,12.546,12.351,12.546,0,0
20110103,12.546,12.546,12.06,12.449,0,0
20110104,12.449,12.449,12.254,12.351,0,0
20110105,12.351,12.449,12.157,12.449,0,0
20110107,12.351,12.449,12.351,12.449,0,0
20110110,12.643,12.643,12.351,12.351,0,0
20110111,12.351,12.351,12.254,12.254,0,0
20110112,12.157,12.254,12.157,12.254,0,0
20110113,12.254,12.351,12.157,12.157,0,0
20110114,12.157,12.254,11.768,11.768,0,0
20110117,11.768,11.865,11.768,11.865,0,0
20110118,12.06,12.06,11.768,11.768,0,0
20110119,11.865,11.865,11.184,11.573,0,0
20110120,11.573,11.671,11.573,11.671,0,0
20110121,11.573,11.865,11.573,11.768,0,0
20110124,11.768,11.768,11.573,11.671,0,0
20110125,11.671,11.768,11.573,11.573,0,0
20110126,11.573,11.573,11.573,11.573,0,0
20110127,11.476,11.768,11.476,11.671,0,0
20110128,11.671,11.671,11.671,11.671,0,0
20110131,11.087,11.671,11.087,11.573,0,0
20110201,11.671,11.671,11.379,11.573,0,0
20110202,11.573,11.768,11.476,11.573,0,0
20110203,11.476,11.768,11.476,11.573,0,0
20110204,11.573,11.573,11.573,11.573,0,0
20110207,11.671,12.254,11.573,12.254,0,0
20110208,12.254,12.254,12.157,12.157,0,0
20110209,12.157,12.157,11.671,11.962,0,0
20110210,11.962,12.157,11.768,12.157,0,0
20110211,11.865,12.157,11.671,12.157,0,0
20110214,12.254,12.254,11.768,12.06,0,0
20110215,12.157,12.157,11.865,11.865,0,0
20110216,11.865,11.865,11.768,11.768,0,0
20110217,11.671,11.768,11.671,11.768,0,0
20110218,11.671,11.768,11.671,11.768,0,0
20110221,11.671,11.768,11.671,11.671,0,0
20110222,11.671,11.671,11.671,11.671,0,0
20110223,11.671,11.962,11.671,11.865,0,0
20110224,11.962,12.157,11.962,12.06,0,0
20110225,12.06,12.06,11.962,11.962,0,0
20110228,11.962,12.06,11.865,12.06,0,0
20110301,12.06,12.06,11.865,11.865,0,0
20110302,11.962,12.157,11.865,12.157,0,0
20110303,12.157,12.254,11.865,12.254,0,0
20110304,12.254,12.449,12.254,12.449,0,0
20110307,12.449,12.643,12.449,12.449,0,0
20110308,12.546,12.643,12.449,12.546,0,0
20110309,12.546,12.643,12.449,12.546,0,0
20110310,12.546,12.546,12.351,12.351,0,0
20110311,12.351,12.351,12.06,12.06,0,0
20110314,12.06,12.254,12.06,12.254,0,0
20110315,11.962,12.449,11.962,12.449,0,0
20110316,12.546,12.546,12.449,12.449,0,0
20110317,12.546,12.546,12.449,12.449,0,0
20110318,12.546,12.546,12.351,12.351,0,0
20110321,12.254,12.351,12.254,12.351,0,0
20110322,12.449,12.643,12.351,12.643,0,0
20110323,12.643,12.643,11.184,11.184,0,0
20110324,11.184,11.184,10.99,10.99,0,0
20110325,10.99,11.087,10.795,10.99,0,0
20110328,10.99,10.99,10.99,10.99,0,0
20110329,10.99,11.087,10.795,11.087,0,0
20110330,11.087,11.087,10.99,10.99,0,0
20110331,10.99,10.99,10.795,10.99,0,0
20110401,11.087,11.087,10.893,10.99,0,0
20110404,10.99,10.99,10.504,10.795,0,0
20110405,10.504,10.795,10.504,10.601,0,0
20110406,10.504,10.698,10.406,10.601,0,0
20110407,10.698,10.698,10.601,10.698,0,0
20110408,10.601,10.795,10.601,10.698,0,0
20110411,10.601,10.698,10.504,10.504,0,0
20110412,10.504,10.504,10.309,10.504,0,0
20110413,10.504,10.698,10.406,10.406,0,0
20110414,10.504,10.504,10.309,10.406,0,0
20110415,10.504,10.504,10.309,10.309,0,0
20110418,10.309,10.406,10.017,10.406,0,0
20110419,10.406,10.504,10.406,10.504,0,0
20110420,10.504,10.504,10.406,10.406,0,0
20110421,10.504,10.504,10.212,10.212,0,0
20110426,10.212,10.212,10.017,10.115,0,0
20110427,10.212,10.212,10.115,10.115,0,0
20110428,10.115,10.115,9.92,9.92,0,0
20110429,10.017,10.017,9.628,9.92,0,0
20110502,10.115,10.115,9.92,9.92,0,0
20110504,10.017,10.017,9.823,9.823,0,0
20110505,9.823,9.92,9.726,9.823,0,0
20110506,9.823,9.823,9.628,9.628,0,0
20110509,9.628,9.628,9.531,9.628,0,0
20110510,9.628,9.628,9.3365,9.531,0,0
20110511,9.4338,9.531,9.4338,9.531,0,0
20110512,9.531,9.628,9.531,9.531,0,0
20110513,9.628,9.628,8.8503,8.9475,0,0
20110516,8.4612,8.9475,8.364,8.4612,0,0
20110517,8.4612,8.5585,8.2667,8.364,0,0
20110518,8.5585,8.5585,8.2667,8.364,0,0
20110519,8.4612,8.4612,8.0722,8.0722,0,0
20110520,7.975,8.1695,7.975,8.1695,0,0
20110523,8.1695,8.2667,8.1695,8.1695,0,0
20110524,8.1695,8.1695,8.1695,8.1695,0,0
20110525,8.1695,8.1695,8.1695,8.1695,0,0
20110526,8.1695,8.1695,8.0722,8.1695,0,0
20110527,8.1695,8.2667,8.1695,8.1695,0,0
20110530,8.1695,8.364,8.1695,8.1695,0,0
20110531,8.1695,8.1695,8.1695,8.1695,0,0
20110601,8.2667,8.2667,8.1695,8.1695,0,0
20110602,8.1695,8.2667,8.1695,8.2667,0,0
20110603,8.2667,8.2667,8.2667,8.2667,0,0
20110606,8.2667,8.4612,8.2667,8.4612,0,0
20110607,8.4612,8.4612,8.2667,8.4612,0,0
20110608,8.4612,8.6557,8.4612,8.5585,0,0
20110609,8.5585,8.6557,8.5585,8.6557,0,0
20110610,8.6557,8.6557,8.4612,8.6557,0,0
20110613,8.6557,8.6557,8.5585,8.6557,0,0
20110614,8.6557,8.6557,8.5585,8.6557,0,0
20110615,8.6557,8.6557,8.4612,8.4612,0,0
20110616,8.4612,8.4612,8.2667,8.364,0,0
20110617,8.4612,8.4612,8.2667,8.2667,0,0
20110620,8.2667,8.2667,8.0722,8.0722,0,0
20110621,8.0722,8.0722,7.3914,7.8777,0,0
20110622,7.8777,7.8777,7.4887,7.5859,0,0
20110624,7.4887,7.4887,6.9051,7.0024,0,0
20110627,7.0024,7.0024,6.5161,6.5161,0,0
20110628,6.7106,6.8079,6.5161,6.5161,0,0
20110629,6.5161,6.6134,6.5161,6.5161,0,0
20110630,6.6134,6.9051,6.6134,6.7106,0,0
20110701,6.8079,7.0024,6.6134,6.6134,0,0
20110704,6.7106,6.7106,6.4189,6.4189,0,0
20110705,6.5161,6.5161,6.2244,6.3216,0,0
20110706,6.3216,6.3216,6.2244,6.3216,0,0
20110707,6.3216,6.3216,6.2244,6.2244,0,0
20110708,6.2244,6.2244,6.1271,6.2244,0,0
20110711,6.2244,6.2244,6.1271,6.1271,0,0
20110712,6.1271,6.1271,6.0298,6.0298,0,0
20110713,6.1271,6.2244,6.0298,6.0298,0,0
20110714,5.8353,6.0298,5.8353,5.9326,0,0
20110715,5.8353,5.8353,5.7381,5.7381,0,0
20110718,5.6408,5.6408,5.4463,5.5436,0,0
20110719,5.5436,5.5436,5.2518,5.3491,0,0
20110720,5.1545,5.3491,5.0573,5.3491,0,0
20110721,5.3491,5.3491,5.1545,5.3491,0,0
20110722,5.3491,5.3491,5.2518,5.3491,0,0
20110725,5.3491,5.4463,5.3491,5.3491,0,0
20110726,5.3491,5.3491,5.2518,5.3491,0,0
20110727,5.3491,5.3491,5.2518,5.2518,0,0
20110728,5.2518,5.3491,5.1545,5.3491,0,0
20110729,5.3491,5.3491,5.1545,5.3491,0,0
20110801,5.3491,5.8353,5.3491,5.5436,0,0
20110802,5.5436,5.7381,5.5436,5.5436,0,0
20110803,5.4463,5.5436,5.3491,5.3491,0,0
20110804,5.3491,5.3491,4.8628,4.8628,0,0
20110805,4.6683,4.8628,4.571,4.6683,0,0
20110808,4.2792,4.4738,4.2792,4.2792,0,0
20110809,4.2792,4.3765,4.0847,4.2792,0,0
20110810,4.3765,4.571,4.3765,4.4738,0,0
20110811,4.3765,4.7655,4.3765,4.571,0,0
20110812,4.7655,4.8628,4.571,4.8628,0,0
20110816,5.3491,5.3491,5.1545,5.2518,0,0
20110817,5.2518,5.2518,5.2518,5.2518,0,0
20110818,5.2518,5.2518,4.6683,4.6683,0,0
20110819,4.6683,4.6683,4.3765,4.6683,0,0
20110822,4.7655,4.8628,4.7655,4.7655,0,0
20110823,4.8628,4.8628,4.6683,4.7655,0,0
20110824,4.8628,4.8628,4.6683,4.7655,0,0
20110825,4.7655,4.7655,4.6683,4.7655,0,0
20110826,4.7655,4.7655,4.7655,4.7655,0,0
20110829,4.8628,4.8628,4.7655,4.7655,0,0
20110830,4.8628,4.8628,4.7655,4.7655,0,0
20110831,4.8628,4.8628,4.6683,4.7655,0,0
20110901,4.6683,5.3491,4.6683,5.3491,0,0
20110902,5.3491,5.3491,5.0573,5.1545,0,0
20110905,4.8628,5.1545,4.7655,4.7655,0,0
20110906,4.6683,4.6683,4.571,4.6683,0,0
20110907,4.571,4.7655,4.571,4.7655,0,0
20110908,4.7655,4.96,4.7655,4.7655,0,0
20110909,4.7655,4.96,4.7655,4.96,0,0
20110912,4.8628,4.8628,4.6683,4.6683,0,0
20110913,4.6683,4.6683,4.571,4.571,0,0
20110914,4.571,4.571,4.4738,4.571,0,0
20110915,4.571,4.571,4.3765,4.4738,0,0
20110916,4.4738,4.4738,4.182,4.2792,0,0
20110919,4.2792,4.2792,4.182,4.182,0,0
20110920,4.182,4.182,4.182,4.182,0,0
20110921,4.182,4.182,4.0847,4.182,0,0
20110922,4.0847,4.182,3.9875,3.9875,0,0
20110923,3.8902,3.9875,3.8902,3.9875,0,0
20110926,3.8902,3.8902,3.5985,3.8902,0,0
20110927,3.8902,3.8902,3.6957,3.793,0,0
20110928,3.793,3.793,3.793,3.793,0,0
20110929,3.793,3.793,3.6957,3.6957,0,0
20110930,3.6957,3.6957,3.5985,3.6957,0,0
20111003,3.6957,3.6957,3.5012,3.5012,0,0
20111004,3.5012,3.5012,3.4039,3.5012,0,0
20111005,3.5012,3.5985,3.5012,3.5012,0,0
20111006,3.5012,3.5985,3.4039,3.5985,0,0
20111007,3.6957,3.6957,3.5985,3.5985,0,0
20111010,3.5985,3.5985,3.5985,3.5985,0,0
20111011,3.5985,3.5985,3.5012,3.5985,0,0
20111012,3.6957,3.6957,3.5985,3.5985,0,0
20111013,3.5985,3.6957,3.5985,3.5985,0,0
20111014,3.6957,3.9875,3.6957,3.9875,0,0
20111017,4.0847,4.8628,4.0847,4.2792,0,0
20111018,4.2792,4.2792,3.9875,3.9875,0,0
20111019,3.9875,4.0847,3.8902,3.8902,0,0
20111020,3.8902,3.8902,3.6957,3.8902,0,0
20111021,3.8902,4.0847,3.793,4.0847,0,0
20111024,4.0847,4.182,4.0847,4.182,0,0
20111025,4.182,4.182,3.9875,3.9875,0,0
20111026,3.9875,3.9875,3.8902,3.9875,0,0
20111027,3.9875,4.3765,3.9875,4.2792,0,0
20111028,4.4738,4.4738,4.2792,4.2792,0,0
20111031,4.3765,4.3765,4.182,4.182,0,0
20111102,4.0847,4.0847,3.8902,3.9875,0,0
20111103,3.9875,4.2792,3.9875,4.2792,0,0
20111104,4.3765,4.3765,4.182,4.2792,0,0
20111107,4.2792,4.3765,4.2792,4.2792,0,0
20111108,4.2792,4.2792,4.182,4.2792,0,0
20111109,4.2792,4.2792,4.0847,4.0847,0,0
20111110,3.9875,3.9875,3.9875,3.9875,0,0
20111114,4.0847,4.0847,3.9875,4.0847,0,0
20111115,3.8902,3.8902,3.793,3.793,0,0
20111116,3.793,6.9051,3.6957,6.9051,0,0
20111117,6.9051,6.9051,6.7106,6.9051,0,0
20111118,7.0024,7.0024,6.5161,6.5161,0,0
20111121,6.5161,6.5161,6.2244,6.2244,0,0
20111122,6.2244,6.3216,5.7381,5.7381,0,0
20111123,5.6408,5.9326,5.1545,5.6408,0,0
20111124,5.6408,5.6408,5.6408,5.6408,0,0
20111125,5.6408,5.6408,5.5436,5.5436,0,0
20111128,5.5436,5.5436,5.0573,5.3491,0,0
20111129,5.2518,5.5436,5.2518,5.5436,0,0
20111130,5.5436,5.7381,5.3491,5.7381,0,0
20111201,5.7381,5.8353,5.3491,5.5436,0,0
20111202,5.5436,5.5436,5.3491,5.5436,0,0
20111205,5.5436,5.5436,5.3491,5.3491,0,0
20111206,5.3491,5.4463,5.3491,5.4463,0,0
20111207,5.4463,5.4463,5.1545,5.3491,0,0
20111208,5.3491,5.3491,5.1545,5.1545,0,0
20111209,5.1545,5.2518,4.8628,5.2518,0,0
20111212,5.1545,5.3491,5.1545,5.3491,0,0
20111213,5.3491,5.5436,5.3491,5.4463,0,0
20111214,5.4463,5.5436,5.3491,5.4463,0,0
20111215,5.5436,5.5436,5.3491,5.4463,0,0
20111216,5.5436,5.5436,5.3491,5.4463,0,0
20111219,5.5436,5.5436,5.4463,5.4463,0,0
20111220,5.5436,5.5436,5.4463,5.5436,0,0
20111221,5.6408,5.6408,5.6408,5.6408,0,0
20111222,5.6408,5.7381,5.6408,5.6408,0,0
20111223,5.7381,5.7381,5.6408,5.6408,0,0
20111227,5.6408,5.6408,5.5436,5.6408,0,0
20111228,5.6408,5.6408,5.6408,5.6408,0,0
20111229,5.6408,5.6408,5.5436,5.6408,0,0
20111230,5.6408,5.6408,5.6408,5.6408,0,0
20120102,5.6408,5.6408,5.5436,5.5436,0,0
20120103,5.5436,5.5436,5.4463,5.5436,0,0
20120104,5.5436,5.5436,5.3491,5.4463,0,0
20120105,5.4463,5.5436,5.3491,5.4463,0,0
20120109,5.5436,5.5436,5.5436,5.5436,0,0
20120110,5.5436,5.7381,5.5436,5.7381,0,0
20120111,5.7381,6.1271,5.7381,6.1271,0,0
20120112,6.1271,6.6134,6.1271,6.5161,0,0
20120113,6.5161,6.7106,6.3216,6.3216,0,0
20120116,6.3216,6.4189,6.3216,6.4189,0,0
20120117,6.4189,7.0024,6.4189,7.0024,0,0
20120118,7.3914,7.4887,7.2942,7.3914,0,0
20120119,7.3914,7.5859,7.3914,7.3914,0,0
20120120,7.3914,7.4887,7.1969,7.2942,0,0
20120123,7.1969,7.1969,6.9051,7.1969,0,0
20120124,7.1969,7.8777,7.1969,7.7804,0,0
20120125,7.7804,8.364,7.7804,8.364,0,0
20120126,8.6557,8.9475,8.6557,8.753,0,0
20120127,8.753,9.142,8.753,9.142,0,0
20120130,9.0448,9.2393,9.0448,9.142,0,0
20120131,9.142,9.3365,9.0448,9.3365,0,0
20120201,9.3365,9.3365,8.9475,9.2393,0,0
20120202,9.142,9.3365,9.142,9.3365,0,0
20120203,9.2393,9.4338,9.0448,9.3365,0,0
20120206,9.142,9.4338,9.142,9.2393,0,0
20120207,9.2393,9.3365,8.9475,9.142,0,0
20120208,9.2393,9.3365,9.2393,9.3365,0,0
20120209,9.3365,9.3365,9.142,9.2393,0,0
20120210,9.2393,9.2393,8.9475,9.142,0,0
20120213,9.142,9.823,9.142,9.823,0,0
20120214,10.212,10.212,9.531,9.628,0,0
20120215,9.628,10.309,9.628,10.309,0,0
20120216,10.309,10.309,10.017,10.212,0,0
20120217,10.309,11.087,10.309,10.406,0,0
20120220,10.893,11.282,10.795,11.184,0,0
20120221,11.282,11.282,10.504,10.504,0,0
20120222,10.504,10.504,9.92,10.212,0,0
20120223,10.115,10.698,10.115,10.406,0,0
20120224,10.406,10.504,10.212,10.212,0,0
20120227,10.309,10.309,10.017,10.212,0,0
20120228,10.212,10.212,10.115,10.115,0,0
20120229,9.628,9.726,9.142,9.142,0,0
20120301,8.8503,9.726,8.753,9.531,0,0
20120302,9.3365,9.531,9.3365,9.531,0,0
20120305,9.4338,9.628,9.3365,9.4338,0,0
20120306,9.4338,9.4338,9.0448,9.0448,0,0
20120307,9.142,9.3365,8.9475,9.3365,0,0
20120308,9.3365,9.531,9.3365,9.531,0,0
20120309,9.531,9.531,9.3365,9.4338,0,0
20120312,9.4338,9.4338,9.142,9.142,0,0
20120313,9.2393,9.2393,9.0448,9.142,0,0
20120314,9.142,9.3365,9.142,9.142,0,0
20120315,9.142,9.2393,9.142,9.142,0,0
20120316,8.9475,8.9475,8.4612,8.5585,0,0
20120319,8.753,8.9475,8.5585,8.9475,0,0
20120320,8.753,8.9475,8.6557,8.9475,0,0
20120321,8.6557,8.6557,8.364,8.364,0,0
20120322,8.4612,12.449,8.0722,12.449,0,0
20120323,12.06,12.74,12.06,12.643,0,0
20120326,12.643,12.643,12.254,12.546,0,0
20120327,12.546,12.838,12.546,12.838,0,0
20120328,12.838,13.324,12.838,13.324,0,0
20120329,13.13,13.519,13.13,13.421,0,0
20120330,13.519,13.519,13.032,13.421,0,0
20120402,13.421,13.421,13.324,13.421,0,0
20120403,13.421,13.421,13.032,13.032,0,0
20120404,13.13,13.13,12.351,12.351,0,0
20120405,12.157,12.643,12.157,12.351,0,0
20120410,12.157,12.351,11.573,11.671,0,0
20120411,11.184,11.671,11.184,11.671,0,0
20120412,11.671,11.671,11.476,11.671,0,0
20120413,11.671,11.768,11.573,11.573,0,0
20120416,11.768,11.962,11.768,11.865,0,0
20120417,11.671,12.06,11.671,11.768,0,0
20120418,11.768,12.449,11.768,12.254,0,0
20120419,12.449,12.74,12.254,12.449,0,0
20120420,12.74,12.74,12.351,12.643,0,0
20120423,12.546,12.546,11.379,11.865,0,0
20120424,10.795,12.449,10.795,12.449,0,0
20120425,11.865,11.865,11.476,11.476,0,0
20120426,11.476,11.476,10.698,10.795,0,0
20120427,10.698,11.476,10.601,11.476,0,0
20120430,11.476,11.768,11.476,11.768,0,0
20120502,11.865,11.962,11.671,11.768,0,0
20120504,11.865,11.865,11.768,11.865,0,0
20120507,11.671,11.671,11.184,11.573,0,0
20120508,11.671,11.671,11.379,11.379,0,0
20120509,11.476,11.476,11.184,11.184,0,0
20120510,11.184,11.184,10.893,11.184,0,0
20120511,10.893,11.282,10.893,10.99,0,0
20120514,10.99,10.99,10.795,10.893,0,0
20120515,10.893,10.893,10.795,10.795,0,0
20120516,10.601,16.242,9.726,16.242,0,0
20120517,15.755,15.755,15.075,15.075,0,0
20120518,15.075,16.242,14.297,16.242,0,0
20120521,16.144,18.381,16.144,18.381,0,0
20120522,18.381,18.868,18.284,18.284,0,0
20120523,18.09,18.09,17.701,17.798,0,0
20120524,17.798,17.798,17.117,17.117,0,0
20120525,17.409,17.409,16.825,16.825,0,0
20120528,16.825,16.825,16.242,16.728,0,0
20120529,16.922,16.922,16.339,16.339,0,0
20120530,16.533,16.533,15.561,15.658,0,0
20120531,15.366,15.366,14.491,15.366,0,0
20120601,15.172,16.047,14.88,15.172,0,0
20120604,15.075,15.075,13.908,14.297,0,0
20120605,13.81,14.297,13.421,13.616,0,0
20120606,13.616,13.616,13.227,13.227,0,0
20120608,13.032,14.102,13.032,14.102,0,0
20120611,14.102,14.686,14.102,14.686,0,0
20120612,14.686,15.366,14.686,15.075,0,0
20120613,15.366,16.533,15.366,16.533,0,0
20120614,16.533,18.09,16.533,17.992,0,0
20120615,18.187,18.965,17.992,18.965,0,0
20120618,18.965,18.965,18.965,18.965,0,0
20120619,18.965,18.965,18.673,18.965,0,0
20120620,18.965,18.965,17.506,17.506,0,0
20120621,17.506,17.798,16.436,16.436,0,0
20120622,16.631,16.631,15.366,15.561,0,0
20120625,15.269,15.269,14.686,14.783,0,0
20120626,14.783,15.561,14.783,15.269,0,0
20120627,15.95,16.242,15.075,15.075,0,0
20120628,14.977,15.755,14.102,14.297,0,0
20120629,14.394,14.394,12.935,13.032,0,0
20120702,13.032,13.032,11.282,11.671,0,0
20120703,11.768,11.962,10.601,10.893,0,0
20120704,10.893,10.893,10.406,10.601,0,0
20120705,10.601,11.282,10.601,11.282,0,0
20120706,11.282,11.865,11.282,11.671,0,0
20120709,11.573,12.254,11.476,12.254,0,0
20120710,12.643,12.643,11.962,12.157,0,0
20120711,12.157,12.157,11.282,11.476,0,0
20120712,11.282,11.282,10.99,11.087,0,0
20120713,11.184,11.379,11.184,11.282,0,0
20120716,11.379,11.379,11.184,11.282,0,0
20120717,11.282,11.282,11.087,11.184,0,0
20120718,11.087,11.768,11.087,11.671,0,0
20120719,11.671,11.671,11.282,11.379,0,0
20120720,11.379,11.379,11.184,11.282,0,0
20120723,11.087,11.087,10.795,11.087,0,0
20120724,11.087,11.087,10.795,10.99,0,0
20120725,10.795,10.99,10.795,10.99,0,0
20120726,10.99,11.087,10.601,10.698,0,0
20120727,10.795,10.99,10.504,10.99,0,0
20120730,10.99,10.99,10.99,10.99,0,0
20120731,10.99,10.99,10.504,10.698,0,0
20120801,10.601,10.698,9.726,10.309,0,0
20120802,10.309,11.087,10.115,10.309,0,0
20120803,10.601,10.601,9.726,10.017,0,0
20120806,10.017,10.017,10.017,10.017,0,0
20120807,10.017,10.504,10.017,10.504,0,0
20120808,10.601,10.99,10.601,10.795,0,0
20120809,10.795,10.795,10.795,10.795,0,0
20120810,10.795,10.795,10.795,10.795,0,0
20120813,10.601,10.99,10.601,10.99,0,0
20120814,10.99,10.99,10.504,10.504,0,0
20120816,10.504,10.601,10.504,10.601,0,0
20120817,10.601,10.601,10.601,10.601,0,0
20120820,10.795,10.795,10.406,10.698,0,0
20120821,10.698,10.698,10.406,10.698,0,0
20120822,10.795,10.795,10.504,10.698,0,0
20120823,10.698,10.893,10.504,10.893,0,0
20120824,10.893,11.379,10.893,11.379,0,0
20120827,11.476,11.476,11.282,11.282,0,0
20120828,10.99,11.087,10.698,10.99,0,0
20120829,10.99,10.99,10.504,10.99,0,0
20120830,10.99,11.087,10.698,10.99,0,0
20120831,10.698,10.99,10.212,10.893,0,0
20120903,10.893,10.893,10.698,10.893,0,0
20120904,10.99,10.99,10.795,10.893,0,0
20131118,20.229,20.229,20.229,20.229,0,0
20131119,20.035,21.493,20.035,21.396,0,0
20131120,21.396,21.493,20.618,21.202,0,0
20140325,35.887,35.887,35.887,35.887,0,0
20140326,35.887,35.887,35.207,35.596,0,0
20140327,35.498,35.498,34.817,34.915,0,0
20140328,34.817,34.817,33.748,33.845,0,0
20140331,33.845,35.498,33.553,35.498,0,0
20140401,35.498,35.498,33.553,33.845,0,0
20140402,33.845,33.845,33.067,33.456,0,0
20140403,32.872,33.845,32.872,33.845,0,0
20140404,33.359,34.137,33.261,33.845,0,0
20140407,33.359,33.359,33.067,33.067,0,0
20140408,33.261,33.261,33.067,33.067,0,0
20140409,33.067,33.261,33.067,33.164,0,0
20140410,33.261,33.261,32.97,33.067,0,0
20140411,32.97,32.97,32.581,32.872,0,0
20140414,32.678,32.678,32.192,32.192,0,0
20140415,31.219,31.608,30.927,30.927,0,0
20140416,30.733,30.733,29.76,30.538,0,0
20140417,30.636,30.636,30.149,30.149,0,0
20140422,30.149,31.414,30.149,31.414,0,0
20140423,31.414,31.803,30.927,30.927,0,0
20140424,30.83,30.927,30.149,30.149,0,0
20140425,30.246,30.441,30.149,30.149,0,0
20140428,30.149,30.441,30.149,30.441,0,0
20140429,30.83,30.83,30.636,30.636,0,0
20140430,30.733,30.733,30.344,30.344,0,0
20140502,30.636,30.636,30.246,30.246,0,0
20140505,30.636,30.636,29.663,29.76,0,0
20140506,29.857,29.857,29.371,29.76,0,0
20140507,29.76,29.76,28.01,28.982,0,0
20140508,28.885,28.885,28.496,28.496,0,0
20140509,28.107,28.107,27.329,27.329,0,0
20140512,26.843,27.134,26.648,27.134,0,0
20140513,27.037,27.329,27.037,27.037,0,0
20140514,27.329,27.523,27.037,27.037,0,0
20140515,27.815,28.69,27.815,28.301,0,0
20140516,27.815,28.593,27.718,28.107,0,0
20140519,28.107,28.301,27.718,27.718,0,0
20140520,27.718,27.815,27.134,27.815,0,0
20140521,27.134,27.815,27.037,27.815,0,0
20140522,27.718,28.107,27.232,28.107,0,0
20140523,28.107,28.107,27.621,27.815,0,0
20140526,28.301,28.301,27.815,27.815,0,0
20140527,27.815,28.107,22.466,22.466,0,0
20140528,22.466,22.952,22.466,22.563,0,0
20140529,22.466,22.758,22.466,22.563,0,0
20140530,22.563,22.661,22.563,22.661,0,0
20140602,22.952,22.952,22.661,22.661,0,0
20140603,22.952,23.05,22.272,22.661,0,0
20140604,22.661,22.855,22.661,22.855,0,0
20140605,22.758,23.244,22.758,23.05,0,0
20140606,23.244,23.244,22.855,23.244,0,0
20140609,23.244,23.244,23.05,23.05,0,0
20140610,23.147,23.147,23.147,23.147,0,0
20140611,23.147,23.147,22.952,22.952,0,0
20140612,23.05,23.05,22.855,22.855,0,0
20140613,22.466,22.661,22.466,22.661,0,0
20140616,22.466,22.466,22.369,22.369,0,0
20140617,22.369,22.369,22.369,22.369,0,0
20140618,22.369,22.466,22.369,22.466,0,0
20140620,22.272,22.466,22.077,22.466,0,0
20140623,22.174,22.855,22.174,22.466,0,0
20140624,22.855,22.855,22.369,22.855,0,0
20140625,22.661,22.661,21.883,22.661,0,0
20140626,25.2,25.2,23.5,23.8,0,0
20140627,23.8,23.8,23.5,23.5,0,0
20140630,23.3,23.3,22.8,23.3,0,0
20140701,22.9,22.9,22.5,22.5,0,0
20140703,22.3,22.6,22.1,22.5,0,0
20140704,22.5,22.5,22.1,22.1,0,0
20140707,22.1,22.1,21.3,21.9,0,0
20140708,21.9,21.9,21.6,21.7,0,0
20140710,21.4,21.4,20.9,21.3,0,0
20140711,20.8,21.4,20.7,21.4,0,0
20140714,20.9,21.7,20.9,21.5,0,0
20140715,21.5,21.5,21,21.3,0,0
20140716,21.3,21.5,20.9,21.5,0,0
20140717,20.7,21.5,20.7,21.5,0,0
20140718,21.5,21.7,20.9,21.7,0,0
20140721,21.7,21.7,21.2,21.5,0,0
20140722,21.2,21.5,20.9,21.4,0,0
20140723,21.3,21.3,20.9,21,0,0
20140724,20.9,20.9,20.8,20.8,0,0
20140725,20.6,20.6,20.4,20.4,0,0
20140728,20.6,20.8,20.6,20.6,0,0
20140729,20.6,21.1,20.2,21.1,0,0
20140730,20.9,20.9,20.9,20.9,0,0
20140731,20.7,20.7,20.7,20.7,0,0
20140801,20.4,20.7,20.3,20.5,0,0
20140804,20.5,20.5,20.5,20.5,0,0
20140805,20.8,21,19.8,19.8,0,0
20140806,19.8,19.9,19.4,19.5,0,0
20140807,19.5,19.5,18.8,18.8,0,0
20140808,18.8,18.8,18.3,18.4,0,0
20140811,19.4,19.4,18.6,18.6,0,0
20140812,18.9,18.9,18.8,18.8,0,0
20140813,18.6,18.9,18.6,18.9,0,0
20140814,18.3,18.7,17.9,18.7,0,0
20140818,18.7,18.7,18.6,18.6,0,0
20140819,18.6,18.7,18.6,18.6,0,0
20140820,18.7,18.8,18.7,18.8,0,0
20140821,18.8,19.8,18.8,19.8,0,0
20140822,20,20.6,19.7,19.8,0,0
20140825,20.1,21.1,20.1,20.5,0,0
20140826,20.6,22.1,20.6,21,0,0
20140827,21.2,22.1,21.2,22,0,0
20140828,22,22,20.3,21,0,0
20140829,21,21,16.6,16.6,0,0
20140901,16.6,16.6,16.2,16.2,0,0
20140902,16.2,16.2,16.1,16.2,0,0
20140903,16.3,16.7,16.3,16.4,0,0
20140904,16.5,16.8,16.5,16.5,0,0
20140905,16.6,16.6,16,16.2,0,0
20140908,16,16.6,16,16.6,0,0
20140909,16.6,17,16.4,17,0,0
20140910,16.9,17.5,16.9,17.5,0,0
20140911,17.4,17.4,16.2,16.3,0,0
20140912,16.6,16.7,16.4,16.4,0,0
20140915,16.6,16.8,16.6,16.8,0,0
20140916,16.8,17.3,16.7,16.9,0,0
20140917,17.2,17.2,16.9,16.9,0,0
20140918,16.8,17,16.8,17,0,0
20140919,17.2,17.3,17.1,17.2,0,0
20140922,17.2,17.2,17.2,17.2,0,0
20140923,17,17,16.1,16.7,0,0
20140924,16.6,16.6,16.1,16.1,0,0
20140925,16.1,16.7,16.1,16.7,0,0
20140929,16.6,16.6,16.5,16.5,0,0
20140930,16.5,16.8,16.4,16.8,0,0
20141001,16.5,16.5,16.4,16.4,0,0
20141002,16.3,16.3,16.2,16.2,0,0
20141003,16.2,16.6,16.2,16.6,0,0
20141006,16.6,16.6,16.3,16.3,0,0
20141007,16.3,16.4,16.3,16.4,0,0
20141008,16.4,16.4,16.4,16.4,0,0
20141009,16.4,16.4,15.9,15.9,0,0
20141010,16,16,15,15.2,0,0
20141013,15.2,15.4,15.2,15.3,0,0
20141014,15.3,15.3,15.1,15.2,0,0
20141015,15.4,15.4,15,15,0,0
20141016,15.1,15.1,14.4,14.5,0,0
20141017,14.6,15,14.5,15,0,0
20141020,15,15,14.9,14.9,0,0
20141021,14.9,15,14.9,15,0,0
20141022,14.8,15.2,14.8,15.2,0,0
20141023,15.1,15.1,14.9,14.9,0,0
20141024,15.2,15.6,15.2,15.3,0,0
20141027,15.3,15.6,15.3,15.5,0,0
20141028,15.4,16,15.4,15.9,0,0
20141029,16.2,16.2,15.8,15.8,0,0
20141030,16,16,15.6,15.9,0,0
20141031,15.8,15.8,15.6,15.7,0,0
20141103,15.7,15.8,15.6,15.6,0,0
20141104,15.6,15.6,15.5,15.6,0,0
20141105,15.7,15.7,15.6,15.6,0,0
20141106,15.5,15.9,15.4,15.5,0,0
20141107,15.8,15.8,15.3,15.3,0,0
20141110,15.2,15.2,15.1,15.2,0,0
20141112,15.2,15.6,15.2,15.5,0,0
20141113,15.3,15.3,15.3,15.3,0,0
20141114,15.3,15.3,14.2,14.2,0,0
20141117,14.2,14.2,13.8,13.8,0,0
20141118,13.8,13.8,13.8,13.8,0,0
20141119,13.9,13.9,13.6,13.6,0,0
20141120,13.6,13.6,13,13,0,0
20141121,13.3,13.3,12.6,12.6,0,0
20141124,12.6,12.6,12.2,12.3,0,0
20141125,12.5,12.5,11.8,11.8,0,0
20141126,11.8,12.2,11.8,12.2,0,0
20141127,12.2,12.3,12.2,12.3,0,0
20141128,12.3,12.4,12.2,12.3,0,0
20141201,12.2,12.4,12.2,12.4,0,0
20141202,12.4,12.7,12.4,12.4,0,0
20141203,12.8,13.2,12.8,13.2,0,0
20141204,13.6,13.6,13.4,13.6,0,0
20141205,13.6,14,13,13.3,0,0
20141208,13,13,12.1,13,0,0
20141209,12.8,12.8,12.7,12.8,0,0
20141210,12.6,12.6,12,12.5,0,0
20141211,12.1,12.4,12.1,12.4,0,0
20141212,12.1,12.4,12.1,12.4,0,0
20141215,12.5,12.5,12.5,12.5,0,0
20141216,12.2,12.2,11.9,12,0,0
20141217,12,12,11.8,11.8,0,0
20141218,11.8,12,11.8,11.8,0,0
20141219,12,12,11.9,11.9,0,0
20141222,12,12,11.5,11.7,0,0
20141223,11.7,11.7,10.9,11.5,0,0
20141229,11.4,11.8,11.4,11.6,0,0
20141230,11.8,11.9,11.7,11.9,0,0
