Date,Open,High,Low,Close,Volume,OpenInt
20090107,5.0281,5.0281,5.0281,5.0281,0,0
20090108,4.8628,4.9309,4.8628,4.9309,0,0
20090112,4.9017,5.2518,4.9017,4.96,0,0
20090113,4.8336,5.2323,4.8336,5.2323,0,0
20090114,5.2323,5.3685,4.9989,5.3004,0,0
20090115,5.0962,5.3004,5.0962,5.0962,0,0
20090116,4.9795,5.2226,4.9795,5.0281,0,0
20090119,5.3296,5.3296,5.3296,5.3296,0,0
20090120,4.96,5.1254,4.8628,5.1254,0,0
20090121,5.1351,5.1351,4.9309,4.9309,0,0
20090122,4.892,5.0281,4.892,5.0281,0,0
20090123,5.1156,5.1156,4.8336,5.0962,0,0
20090126,5.1156,5.1156,4.7461,4.8142,0,0
20090127,4.8142,4.8142,4.7072,4.785,0,0
20090128,4.8142,4.8142,4.785,4.8142,0,0
20090129,4.7558,4.7558,4.7558,4.7558,0,0
20090130,4.6974,4.6974,4.6488,4.6877,0,0
20090202,4.7558,4.7558,4.075,4.3376,0,0
20090203,4.3376,4.3376,4.1334,4.1334,0,0
20090204,4.1334,4.1334,3.9291,4.0069,0,0
20090205,3.7249,4.0653,3.5109,3.9583,0,0
20090206,3.9583,4.7461,3.9583,4.2209,0,0
20090209,3.9972,4.2501,3.9972,4.2501,0,0
20090210,4.357,4.5029,4.1334,4.5029,0,0
20090211,4.6002,4.7461,4.4835,4.5029,0,0
20090212,4.6196,4.6196,4.6196,4.6196,0,0
20090213,4.6196,4.6683,4.6196,4.6683,0,0
20090216,4.5516,4.6196,4.1334,4.1334,0,0
20090217,3.9972,3.9972,3.7346,3.7346,0,0
20090218,3.6471,3.6471,3.5693,3.6374,0,0
20090219,3.7249,3.7249,3.7152,3.7152,0,0
20090220,3.7152,3.7152,3.7152,3.7152,0,0
20090223,3.5498,3.7152,3.5498,3.7054,0,0
20090224,3.7152,4.0653,3.4428,4.0653,0,0
20090225,3.9583,4.4057,3.9583,4.1334,0,0
20090226,4.1723,4.3376,4.1723,4.3376,0,0
20090227,4.1334,4.2695,4.1334,4.2695,0,0
20090302,4.182,4.182,1.2643,1.2643,0,0
20090303,1.206,1.2157,1.1865,1.206,0,0
20090304,1.1768,1.2449,1.1768,1.2449,0,0
20090305,1.2546,1.3032,1.2351,1.3032,0,0
20090306,1.274,1.3032,1.1865,1.3032,0,0
20090309,1.2351,1.2351,1.2351,1.2351,0,0
20090310,1.2351,1.2351,1.1962,1.1962,0,0
20090311,1.1962,1.2157,1.1962,1.2157,0,0
20090312,1.1962,1.2157,1.1962,1.2157,0,0
20090313,1.1962,1.3713,1.1962,1.3713,0,0
20090316,1.2449,1.3227,1.2449,1.2935,0,0
20090317,1.3713,1.3713,1.3421,1.3421,0,0
20090318,1.3713,1.3713,1.3616,1.3713,0,0
20090319,1.3616,1.4005,1.3616,1.4005,0,0
20090320,1.4102,1.4102,1.4102,1.4102,0,0
20090323,1.4297,1.4977,1.4102,1.4977,0,0
20090324,1.5075,1.5172,1.4977,1.4977,0,0
20090325,1.5172,1.5172,1.488,1.488,0,0
20090326,1.5561,1.5561,1.5561,1.5561,0,0
20090327,1.5561,1.5561,1.5366,1.5366,0,0
20090330,1.5366,1.5366,1.5366,1.5366,0,0
20090331,1.5366,1.5366,1.5366,1.5366,0,0
20090401,1.5366,1.5366,1.4588,1.4588,0,0
20090402,1.4783,1.5561,1.4588,1.5561,0,0
20090403,1.5366,1.5561,1.5366,1.5561,0,0
20090406,1.5561,1.5658,1.5561,1.5658,0,0
20090407,1.5853,1.595,1.5755,1.5853,0,0
20090408,1.5853,1.6047,1.5658,1.6047,0,0
20090409,1.6144,1.6825,1.6144,1.6825,0,0
20090414,1.6825,1.6825,1.6144,1.6144,0,0
20090415,1.6047,1.6144,1.6047,1.6144,0,0
20090416,1.5853,1.6825,1.5853,1.6825,0,0
20090417,1.6436,1.6825,1.6436,1.6825,0,0
20090420,1.6728,1.6728,1.5853,1.595,0,0
20090421,1.595,1.6436,1.595,1.6047,0,0
20090422,1.6047,1.7311,1.6047,1.7311,0,0
20090423,1.7409,1.8479,1.7409,1.8381,0,0
20090424,1.8576,1.8965,1.8381,1.8965,0,0
20090427,1.9062,1.9062,1.7409,1.8381,0,0
20090428,1.9159,2.4897,1.9159,2.3341,0,0
20090429,2.6064,2.6064,2.3341,2.4217,0,0
20090430,2.4314,2.4314,2.3439,2.3925,0,0
20090504,2.4314,2.4314,2.3536,2.3925,0,0
20090505,2.4314,2.4703,2.4314,2.4314,0,0
20090506,2.4314,2.4314,2.4217,2.4217,0,0
20090507,2.4217,2.4217,2.3341,2.3925,0,0
20090508,2.3341,2.3633,2.3341,2.3633,0,0
20090511,2.3925,2.4508,2.3925,2.4508,0,0
20090512,2.4508,2.5092,2.4314,2.4314,0,0
20090513,2.4314,2.4314,2.3244,2.3244,0,0
20090514,2.3147,2.3244,2.3147,2.3147,0,0
20090515,2.3341,2.3341,2.2466,2.2466,0,0
20090518,2.2952,2.3925,2.2369,2.2369,0,0
20090519,2.2952,2.2952,2.2952,2.2952,0,0
20090520,2.3341,2.3341,2.3341,2.3341,0,0
20090521,2.2758,2.3536,2.2369,2.3439,0,0
20090522,2.3439,2.3536,2.305,2.3536,0,0
20090525,2.3828,2.3828,2.3341,2.3536,0,0
20090526,2.305,2.373,2.305,2.373,0,0
20090527,2.373,2.373,2.3341,2.3341,0,0
20090528,2.3341,2.3341,2.3341,2.3341,0,0
20090529,2.3536,2.3633,2.3439,2.3633,0,0
20090601,2.3633,2.4606,2.3536,2.4314,0,0
20090602,2.48,2.4995,2.4314,2.4314,0,0
20090603,2.4411,2.4897,2.4314,2.4411,0,0
20090604,2.4606,2.4995,2.4411,2.4995,0,0
20090605,2.5092,2.5189,2.5092,2.5092,0,0
20090608,2.5092,2.5286,2.4897,2.5286,0,0
20090609,2.5286,2.7134,2.5286,2.7134,0,0
20090610,2.7232,2.8204,2.7232,2.8107,0,0
20090612,2.6454,2.8788,2.6454,2.8788,0,0
20090615,2.7232,2.7815,2.6843,2.7815,0,0
20090616,2.7815,2.7815,2.6843,2.7815,0,0
20090617,2.8399,2.8399,2.7037,2.8107,0,0
20090618,2.801,2.801,2.7037,2.7037,0,0
20090619,2.6454,2.6454,2.5092,2.5578,0,0
20090622,2.6162,2.6162,2.6064,2.6064,0,0
20090623,2.4314,2.587,2.4314,2.5286,0,0
20090624,2.5092,2.5092,2.4314,2.4897,0,0
20090625,2.4897,2.5481,2.4897,2.4897,0,0
20090626,2.5481,2.5481,2.5092,2.5384,0,0
20090629,2.5481,2.5481,2.48,2.48,0,0
20090630,2.4897,2.8885,2.4508,2.8204,0,0
20090701,2.7232,2.8788,2.7232,2.8788,0,0
20090702,2.8788,2.8788,2.8399,2.8593,0,0
20090703,2.8593,2.8593,2.7232,2.7912,0,0
20090706,2.7232,2.8204,2.6843,2.8204,0,0
20090707,2.7232,2.8399,2.6843,2.7523,0,0
20090708,2.7232,2.7232,2.6648,2.6648,0,0
20090709,2.7232,2.7912,2.6648,2.7621,0,0
20090710,2.7621,2.7621,2.7037,2.7232,0,0
20090713,2.8107,2.8107,2.7621,2.7621,0,0
20090714,2.7329,2.7329,2.7329,2.7329,0,0
20090715,2.7232,2.7232,2.6259,2.7232,0,0
20090716,2.6259,2.801,2.6259,2.801,0,0
20090717,2.7329,2.7329,2.7329,2.7329,0,0
20090720,2.801,2.801,2.7426,2.7912,0,0
20090721,2.7912,2.8982,2.7912,2.8399,0,0
20090722,2.8885,2.8982,2.8885,2.8885,0,0
20090723,2.8885,2.8885,2.8204,2.8885,0,0
20090724,2.8885,2.8885,2.8885,2.8885,0,0
20090727,2.8885,2.8885,2.7718,2.869,0,0
20090728,2.869,2.869,2.7815,2.869,0,0
20090729,2.7329,2.869,2.7329,2.869,0,0
20090730,2.869,2.869,2.7426,2.8593,0,0
20090731,2.8204,2.8204,2.7718,2.7718,0,0
20090803,2.801,2.801,2.7134,2.7134,0,0
20090804,2.7232,2.8204,2.7134,2.7426,0,0
20090805,2.7329,2.7621,2.7329,2.7621,0,0
20090806,2.7621,2.8204,2.7621,2.8204,0,0
20090807,2.7718,2.8204,2.7718,2.8204,0,0
20090810,2.8496,2.8593,2.8204,2.8593,0,0
20090811,2.801,3.0149,2.801,3.0149,0,0
20090812,2.9955,3.0149,2.8788,2.9955,0,0
20090813,2.9955,2.9955,2.9274,2.9274,0,0
20090814,2.9955,2.9955,2.9177,2.9274,0,0
20090817,2.9177,3.0052,2.869,3.0052,0,0
20090818,3.0052,3.0149,2.869,3.0149,0,0
20090819,2.9857,3.0149,2.9857,3.0149,0,0
20090820,3.0927,3.2678,3.0344,3.2678,0,0
20090821,3.3845,3.4137,3.3845,3.4137,0,0
20090824,3.4234,3.4234,3.2386,3.2483,0,0
20090825,3.3164,3.5693,3.3164,3.5693,0,0
20090826,3.6763,3.9097,3.5693,3.793,0,0
20090827,3.793,3.793,3.5693,3.5693,0,0
20090828,3.6957,3.8902,3.579,3.6374,0,0
20090831,3.6374,3.6374,3.4137,3.5498,0,0
20090901,3.5498,3.6471,3.4623,3.5498,0,0
20090902,3.472,3.5498,3.2775,3.3164,0,0
20090903,3.3164,3.3164,3.2581,3.2775,0,0
20090904,3.2872,3.2872,3.2775,3.2775,0,0
20090907,3.1997,3.1997,3.1803,3.1803,0,0
20090908,3.1997,3.3456,3.1997,3.3456,0,0
20090909,3.4331,3.4331,3.3456,3.3456,0,0
20090910,3.5498,3.5498,3.19,3.1997,0,0
20090911,3.1997,3.2289,3.1316,3.1316,0,0
20090914,3.2678,3.2678,3.1316,3.1316,0,0
20090915,3.1316,3.2386,3.1316,3.2386,0,0
20090916,3.2775,3.3067,3.2386,3.2386,0,0
20090917,3.2775,3.2872,3.2386,3.2872,0,0
20090918,3.1803,3.2192,3.1803,3.2192,0,0
20090921,3.2775,3.2775,3.2192,3.2775,0,0
20090922,3.2581,3.2775,3.2581,3.2775,0,0
20090923,3.1997,3.1997,3.1997,3.1997,0,0
20090924,3.1705,3.2581,3.1316,3.2581,0,0
20090925,3.1997,3.1997,3.1414,3.1414,0,0
20090928,3.0733,3.1414,3.0246,3.0538,0,0
20090929,2.9955,2.9955,2.9955,2.9955,0,0
20090930,2.9955,3.0246,2.9955,3.0246,0,0
20091001,2.9468,3.0246,2.9371,2.9371,0,0
20091002,2.9274,2.9371,2.9274,2.9371,0,0
20091005,2.9371,2.9371,2.9371,2.9371,0,0
20091006,2.9566,3.0927,2.9566,3.0927,0,0
20091007,3.1122,3.1997,3.1122,3.1316,0,0
20091008,3.1705,3.1705,3.1316,3.1316,0,0
20091009,3.2094,3.2581,3.1316,3.2483,0,0
20091012,3.2386,3.2386,3.2386,3.2386,0,0
20091013,3.2483,3.297,3.2386,3.297,0,0
20091014,3.297,3.297,3.2581,3.2581,0,0
20091015,3.297,3.297,3.2775,3.297,0,0
20091016,3.297,3.297,3.2775,3.2775,0,0
20091019,3.2775,3.297,3.2094,3.2775,0,0
20091020,3.2094,3.2094,3.1122,3.19,0,0
20091021,2.9468,3.1705,2.9468,3.0636,0,0
20091022,3.0636,3.1122,3.0636,3.1122,0,0
20091023,3.0441,3.0441,3.0441,3.0441,0,0
20091026,3.1122,3.1122,2.976,2.976,0,0
20091027,2.9274,2.9566,2.9274,2.9566,0,0
20091028,2.8982,2.976,2.8982,2.9566,0,0
20091029,2.9079,2.9566,2.9079,2.9566,0,0
20091030,2.9566,3.1122,2.9566,3.1122,0,0
20091102,3.1122,3.1122,3.0636,3.0636,0,0
20091103,3.0538,3.0538,3.0538,3.0538,0,0
20091104,3.0538,3.0733,3.0538,3.0733,0,0
20091105,3.0927,3.0927,3.0149,3.0149,0,0
20091106,3.0538,3.0538,2.9468,2.9468,0,0
20091109,2.9857,2.9857,2.9468,2.9468,0,0
20091110,3.0052,3.0052,2.9177,2.9274,0,0
20091112,2.9468,2.9566,2.9274,2.9274,0,0
20091113,2.8982,2.9274,2.7426,2.7426,0,0
20091116,2.7718,2.7718,2.7134,2.7426,0,0
20091117,2.7037,2.7037,2.7037,2.7037,0,0
20091118,2.8107,2.8107,2.7426,2.7426,0,0
20091119,2.7426,2.7426,2.7426,2.7426,0,0
20091120,2.7426,2.7426,2.7037,2.7037,0,0
20091123,2.7426,2.7426,2.7426,2.7426,0,0
20091124,2.7037,2.7426,2.6843,2.7426,0,0
20091125,2.7426,2.7426,2.7426,2.7426,0,0
20091126,2.7426,2.7426,2.6551,2.6551,0,0
20091127,2.7426,2.7426,2.587,2.587,0,0
20091130,2.6162,2.7426,2.6162,2.7426,0,0
20091201,2.7426,2.7426,2.7426,2.7426,0,0
20091202,2.7426,2.7426,2.5675,2.6162,0,0
20091203,2.694,2.7426,2.6648,2.6648,0,0
20091204,2.6259,2.6648,2.6259,2.6648,0,0
20091207,2.6454,2.6648,2.6454,2.6648,0,0
20091208,2.6648,2.6745,2.6064,2.6064,0,0
20091209,2.6162,2.6162,2.5578,2.5578,0,0
20091210,2.5578,2.5675,2.5481,2.5481,0,0
20091211,2.6064,2.6064,2.5384,2.5675,0,0
20091214,2.5384,2.5578,2.5384,2.5578,0,0
20091215,2.5384,2.5384,2.4606,2.4995,0,0
20091216,2.5286,2.5286,2.4606,2.4606,0,0
20091217,2.5384,2.5384,2.3536,2.4314,0,0
20091218,2.4217,2.6162,2.4217,2.5675,0,0
20091221,2.6356,2.7037,2.5675,2.6843,0,0
20091222,2.7232,2.7329,2.6843,2.7037,0,0
20091223,2.7426,2.7426,2.6162,2.6162,0,0
20091228,2.5967,2.6162,2.5578,2.587,0,0
20091229,2.6843,2.7426,2.587,2.7232,0,0
20091230,2.7426,2.8107,2.7037,2.7426,0,0
20091231,2.7718,2.7718,2.6551,2.6551,0,0
20100104,2.7232,2.7232,2.6551,2.7037,0,0
20100105,2.7329,2.7426,2.7134,2.7134,0,0
20100106,2.7134,2.7134,2.694,2.7134,0,0
20100107,2.694,2.7037,2.6745,2.7037,0,0
20100108,2.7134,2.7426,2.7134,2.7232,0,0
20100111,2.7718,2.7718,2.7037,2.7426,0,0
20100112,2.7718,2.7718,2.6259,2.7426,0,0
20100113,2.7329,2.7329,2.7037,2.7037,0,0
20100114,2.7037,2.7037,2.6551,2.6551,0,0
20100115,2.6551,2.7523,2.6551,2.7523,0,0
20100118,2.7232,2.7815,2.7232,2.7426,0,0
20100119,2.7718,2.7815,2.7329,2.7815,0,0
20100120,2.7815,2.7815,2.7426,2.7718,0,0
20100121,2.7815,2.7815,2.694,2.7329,0,0
20100122,2.7329,2.7329,2.6551,2.6551,0,0
20100125,2.6745,2.7426,2.6745,2.6843,0,0
20100126,2.6843,2.6843,2.6843,2.6843,0,0
20100127,2.7426,2.7426,2.6843,2.6843,0,0
20100128,2.694,2.7426,2.6648,2.7426,0,0
20100129,2.7426,2.7426,2.7426,2.7426,0,0
20100201,2.6259,2.7523,2.6259,2.7523,0,0
20100202,2.7426,2.7426,2.7426,2.7426,0,0
20100203,2.7426,2.7523,2.7426,2.7523,0,0
20100204,2.7523,2.7523,2.6551,2.6551,0,0
20100205,2.6551,2.7232,2.6551,2.7232,0,0
20100208,2.7232,2.7232,2.6551,2.7037,0,0
20100209,2.7426,2.7426,2.7426,2.7426,0,0
20100210,2.7426,2.7621,2.6745,2.7621,0,0
20100211,2.7621,2.7621,2.7426,2.7426,0,0
20100212,2.7426,2.7426,2.7426,2.7426,0,0
20100215,2.7426,2.7718,2.6551,2.7718,0,0
20100216,2.7912,2.8107,2.7912,2.8107,0,0
20100217,2.8107,2.9079,2.7718,2.9079,0,0
20100218,2.9663,3.0246,2.9663,2.9663,0,0
20100219,2.9663,2.9663,2.9663,2.9663,0,0
20100222,3.0149,3.0149,2.9177,2.9468,0,0
20100223,2.9468,2.9468,2.9274,2.9468,0,0
20100224,2.9857,3.0733,2.8982,2.9955,0,0
20100225,3.0733,3.0733,2.9857,3.0733,0,0
20100226,2.9079,3.0733,2.8593,2.8593,0,0
20100301,2.8399,2.8399,2.8107,2.8301,0,0
20100302,2.6745,2.8496,2.6745,2.8301,0,0
20100303,2.8593,2.8593,2.7621,2.7912,0,0
20100304,2.7621,2.8982,2.7621,2.869,0,0
20100305,2.9177,2.9177,2.869,2.869,0,0
20100308,2.869,2.9663,2.7621,2.9663,0,0
20100309,2.9079,3.0246,2.8982,3.0246,0,0
20100310,3.0246,3.0246,2.9955,3.0246,0,0
20100311,3.0246,3.0733,3.0149,3.0538,0,0
20100312,3.0538,3.0538,3.0246,3.0538,0,0
20100315,3.0538,3.0538,3.0246,3.0246,0,0
20100316,3.0733,3.0733,3.0733,3.0733,0,0
20100317,3.1025,3.1316,3.083,3.083,0,0
20100318,3.1608,3.1608,3.0636,3.0733,0,0
20100319,2.9955,3.0246,2.9955,3.0149,0,0
20100322,3.0149,3.0149,2.8982,2.8982,0,0
20100323,2.8982,2.8982,2.7426,2.7426,0,0
20100324,2.7426,2.7426,2.6551,2.694,0,0
20100325,2.7329,2.7329,2.7329,2.7329,0,0
20100326,2.7621,2.8301,2.7621,2.7621,0,0
20100329,2.7426,3.0246,2.7426,2.8982,0,0
20100330,3.0052,3.0636,2.9371,3.0246,0,0
20100331,3.0246,3.0636,3.0149,3.0246,0,0
20100401,3.0246,3.0636,2.9857,3.0636,0,0
20100406,2.9566,3.0441,2.9566,3.0246,0,0
20100407,2.9468,3.0344,2.9468,3.0246,0,0
20100408,3.0538,3.0538,2.9955,3.0246,0,0
20100409,3.0246,3.0246,3.0246,3.0246,0,0
20100412,3.0344,3.0344,2.9371,2.9371,0,0
20100413,2.869,2.9079,2.8204,2.9079,0,0
20100414,2.8399,2.976,2.8399,2.9663,0,0
20100415,3.0246,3.0246,2.8885,2.8885,0,0
20100416,2.8399,2.8399,2.8399,2.8399,0,0
20100419,2.7912,2.7912,2.7134,2.7134,0,0
20100420,2.7232,2.7912,2.7232,2.7912,0,0
20100421,2.7329,2.8107,2.7037,2.7134,0,0
20100422,2.694,2.7232,2.694,2.7232,0,0
20100423,2.7232,2.869,2.7232,2.869,0,0
20100426,2.869,2.869,2.7815,2.8399,0,0
20100427,2.8107,2.8107,2.7134,2.7718,0,0
20100428,2.6745,2.6843,2.6745,2.6745,0,0
20100429,2.869,2.869,2.5967,2.6454,0,0
20100430,2.6454,2.6551,2.5967,2.5967,0,0
20100504,2.6064,2.6064,2.5481,2.5481,0,0
20100505,2.5675,2.6648,2.5675,2.5967,0,0
20100506,2.5967,2.6648,2.5967,2.6648,0,0
20100507,2.5967,2.5967,2.5773,2.587,0,0
20100510,2.6648,2.7037,2.5967,2.5967,0,0
20100511,2.5967,2.6259,2.5967,2.6259,0,0
20100512,2.6259,2.6259,2.5967,2.5967,0,0
20100513,2.6843,2.6843,2.4314,2.4314,0,0
20100514,2.4314,2.4314,2.3244,2.3633,0,0
20100517,2.373,2.373,2.3439,2.3439,0,0
20100518,2.4119,2.4119,2.3439,2.4119,0,0
20100519,2.3536,2.4119,2.3341,2.4119,0,0
20100520,2.4217,2.4217,2.3147,2.3147,0,0
20100521,2.2758,2.2758,2.1688,2.2758,0,0
20100524,2.2369,2.2369,2.1785,2.1785,0,0
20100525,2.1688,2.1883,2.1104,2.1104,0,0
20100526,2.2466,2.2466,2.1591,2.1591,0,0
20100527,2.198,2.198,2.1007,2.1007,0,0
20100528,2.1591,2.2466,2.1591,2.2174,0,0
20100531,2.2174,2.2174,2.2174,2.2174,0,0
20100601,2.2758,2.3244,2.2174,2.2174,0,0
20100602,2.2758,2.2758,2.2174,2.2174,0,0
20100604,2.2272,2.2952,2.2272,2.2952,0,0
20100607,2.305,2.3439,2.305,2.3147,0,0
20100608,2.3147,2.3147,2.3147,2.3147,0,0
20100609,2.3536,2.3536,2.2855,2.2855,0,0
20100610,2.2369,2.2952,2.2174,2.2952,0,0
20100611,2.2952,2.2952,2.2952,2.2952,0,0
20100614,2.2369,2.2369,2.2174,2.2174,0,0
20100615,2.2174,2.2369,2.2174,2.2369,0,0
20100616,2.2758,2.3439,2.2174,2.2174,0,0
20100617,2.2174,2.2272,2.2174,2.2272,0,0
20100618,2.2174,2.2174,2.2174,2.2174,0,0
20100621,2.2174,2.2174,2.2174,2.2174,0,0
20100622,2.2174,2.2174,2.2174,2.2174,0,0
20100623,2.2952,2.2952,2.2174,2.2174,0,0
20100624,2.2174,2.2174,2.2174,2.2174,0,0
20100625,2.2661,2.2952,2.2174,2.2952,0,0
20100628,2.2369,2.2369,2.2174,2.2174,0,0
20100629,2.2174,2.2174,2.2174,2.2174,0,0
20100630,2.2174,2.2174,2.2174,2.2174,0,0
20100702,2.2174,2.2661,2.2174,2.2661,0,0
20100705,2.2661,2.2661,2.2661,2.2661,0,0
20100706,2.2661,2.373,2.2661,2.305,0,0
20100707,2.305,2.373,2.305,2.373,0,0
20100708,2.373,2.373,2.3439,2.3536,0,0
20100709,2.4508,2.587,2.4508,2.5092,0,0
20100712,2.6162,2.6162,2.5481,2.6064,0,0
20100713,2.6162,2.6454,2.6064,2.6454,0,0
20100714,2.6551,2.6551,2.6162,2.6551,0,0
20100715,2.6551,2.6745,2.6551,2.6745,0,0
20100716,2.6745,2.6843,2.6745,2.6745,0,0
20100719,2.6745,2.694,2.6551,2.6843,0,0
20100720,2.6843,2.6843,2.6454,2.6454,0,0
20100721,2.6259,2.6259,2.6162,2.6162,0,0
20100722,2.6162,2.6162,2.5189,2.6064,0,0
20100723,2.6162,2.6259,2.6064,2.6162,0,0
20100726,2.694,2.694,2.6454,2.6454,0,0
20100727,2.6745,2.6745,2.6745,2.6745,0,0
20100728,2.694,2.694,2.6745,2.694,0,0
20100729,2.7037,2.7134,2.6843,2.7037,0,0
20100730,2.6745,2.7134,2.6745,2.7037,0,0
20100802,2.6745,2.7037,2.6551,2.7037,0,0
20100803,2.7037,2.7232,2.7037,2.7232,0,0
20100804,2.7232,2.7329,2.7232,2.7329,0,0
20100805,2.7426,2.7426,2.7134,2.7426,0,0
20100806,2.7329,2.7329,2.7134,2.7329,0,0
20100809,2.7232,2.7232,2.6843,2.6843,0,0
20100810,2.7134,2.7134,2.6843,2.7134,0,0
20100811,2.7037,2.7037,2.6745,2.694,0,0
20100812,2.694,2.694,2.6745,2.6745,0,0
20100813,2.694,2.694,2.6064,2.6259,0,0
20100816,2.6259,2.6259,2.6064,2.6064,0,0
20100817,2.5773,2.5967,2.5384,2.5967,0,0
20100818,2.5967,2.5967,2.5967,2.5967,0,0
20100819,2.6745,2.6745,2.6745,2.6745,0,0
20100820,2.7134,2.7134,2.6356,2.6356,0,0
20100823,2.6064,2.6064,2.5675,2.5675,0,0
20100824,2.5773,2.5773,2.4703,2.4703,0,0
20100825,2.4606,2.4606,2.4606,2.4606,0,0
20100826,2.4508,2.4995,2.4508,2.4995,0,0
20100827,2.4995,2.587,2.4995,2.587,0,0
20100830,2.6064,2.6064,2.5384,2.6064,0,0
20100831,2.5675,2.6648,2.4995,2.6648,0,0
20100901,2.6454,2.6454,2.5384,2.6454,0,0
20100902,2.6454,2.6454,2.5675,2.6356,0,0
20100903,2.6454,2.6454,2.48,2.48,0,0
20100906,2.5092,2.5092,2.4995,2.4995,0,0
20100907,2.4897,2.4897,2.4217,2.4217,0,0
20100908,2.4022,2.4703,2.4022,2.4703,0,0
20100909,2.4022,2.4606,2.3925,2.4508,0,0
20100910,2.4508,2.4508,2.3828,2.3828,0,0
20100913,2.3828,2.3828,2.373,2.3828,0,0
20100914,2.373,2.373,2.3244,2.3244,0,0
20100915,2.2952,2.3244,2.2952,2.2952,0,0
20100916,2.2952,2.373,2.2952,2.373,0,0
20100917,2.3925,2.3925,2.3828,2.3828,0,0
20100920,2.373,2.4119,2.3147,2.4119,0,0
20100921,2.4217,2.4508,2.3828,2.4314,0,0
20100922,2.4508,2.4508,2.3147,2.4411,0,0
20100923,2.4217,2.4217,2.3147,2.4022,0,0
20100924,2.4314,2.4314,2.3244,2.4314,0,0
20100927,2.4314,2.4314,2.3244,2.3925,0,0
20100928,2.4217,2.4217,2.3244,2.3925,0,0
20100929,2.3925,2.3925,2.3244,2.373,0,0
20100930,2.3244,2.4217,2.3244,2.4217,0,0
20101001,2.4508,2.4508,2.3244,2.4022,0,0
20101004,2.4217,2.4217,2.3147,2.3633,0,0
20101005,2.373,2.373,2.3244,2.373,0,0
20101006,2.373,2.48,2.3244,2.4314,0,0
20101007,2.4606,2.4606,2.4508,2.4508,0,0
20101008,2.4314,2.4606,2.4217,2.4606,0,0
20101011,2.4897,2.4897,2.4022,2.4606,0,0
20101012,2.4606,2.4606,2.3244,2.373,0,0
20101013,2.3244,2.3925,2.3244,2.373,0,0
20101014,2.4022,2.4022,2.3244,2.373,0,0
20101015,2.373,2.373,2.373,2.373,0,0
20101018,2.373,2.373,2.3244,2.3633,0,0
20101019,2.3633,2.3633,2.3244,2.3633,0,0
20101020,2.3633,2.3633,2.3244,2.3244,0,0
20101021,2.3244,2.3633,2.2952,2.3536,0,0
20101022,2.3536,2.3536,2.3244,2.3536,0,0
20101025,2.3536,2.3536,2.2952,2.2952,0,0
20101026,2.3244,2.3244,2.2952,2.3147,0,0
20101027,2.3244,2.3244,2.2952,2.3244,0,0
20101028,2.3439,2.3439,2.305,2.3439,0,0
20101029,2.3439,2.3439,2.2952,2.3439,0,0
20101102,2.3439,2.3828,2.3439,2.3536,0,0
20101103,2.3925,2.4606,2.3925,2.4606,0,0
20101104,2.4897,2.5189,2.4703,2.5189,0,0
20101105,2.5189,2.5189,2.4606,2.4897,0,0
20101108,2.4897,2.5092,2.4022,2.4022,0,0
20101109,2.4703,2.5967,2.4703,2.5578,0,0
20101110,2.7232,2.7329,2.6745,2.694,0,0
20101112,2.6843,2.694,2.4508,2.4508,0,0
20101115,2.4508,2.4508,2.4411,2.4411,0,0
20101116,2.4411,2.4411,2.4119,2.4217,0,0
20101117,2.4022,2.4119,2.3925,2.4022,0,0
20101118,2.3925,2.4217,2.373,2.4119,0,0
20101119,2.4119,2.4119,2.3925,2.3925,0,0
20101122,2.4022,2.4217,2.3828,2.3828,0,0
20101123,2.3828,2.3828,2.2855,2.3439,0,0
20101124,2.4119,2.4411,2.4119,2.4217,0,0
20101125,2.4703,2.4703,2.4119,2.4119,0,0
20101126,2.4217,2.4217,2.4022,2.4217,0,0
20101129,2.4508,2.4703,2.4119,2.4119,0,0
20101130,2.4119,2.4119,2.3536,2.4119,0,0
20101201,2.4119,2.4119,2.305,2.373,0,0
20101202,2.4022,2.4022,2.373,2.3925,0,0
20101203,2.3925,2.4119,2.3925,2.4119,0,0
20101206,2.4119,2.4314,2.3925,2.3925,0,0
20101207,2.4217,2.4217,2.4022,2.4022,0,0
20101208,2.4119,2.4119,2.373,2.373,0,0
20101209,2.3925,2.3925,2.3633,2.373,0,0
20101210,2.3633,2.3633,2.3147,2.3341,0,0
20101213,2.3439,2.3439,2.3341,2.3341,0,0
20101214,2.3536,2.4119,2.3244,2.4119,0,0
20101215,2.4314,2.4314,2.3633,2.3633,0,0
20101216,2.3633,2.3925,2.3536,2.3925,0,0
20101217,2.3925,2.3925,2.3536,2.3633,0,0
20101220,2.3633,2.3828,2.3439,2.3828,0,0
20101221,2.3828,2.3828,2.3536,2.3633,0,0
20101222,2.373,2.373,2.3439,2.373,0,0
20101223,2.373,2.373,2.3341,2.3439,0,0
20101227,2.373,2.373,2.3244,2.3536,0,0
20101228,2.3244,2.373,2.3244,2.373,0,0
20101229,2.373,2.373,2.3439,2.373,0,0
20101230,2.373,2.4314,2.373,2.4314,0,0
20101231,2.4314,2.4703,2.4314,2.4703,0,0
20110103,2.4703,2.4703,2.3828,2.4508,0,0
20110104,2.4508,2.4508,2.4119,2.4314,0,0
20110105,2.4314,2.4508,2.3925,2.4508,0,0
20110107,2.4314,2.4508,2.4314,2.4411,0,0
20110110,2.4703,2.4703,2.4217,2.4217,0,0
20110111,2.4119,2.4119,2.3925,2.4119,0,0
20110112,2.4022,2.4119,2.4022,2.4119,0,0
20110113,2.4119,2.4217,2.3925,2.3925,0,0
20110114,2.3925,2.4022,2.3147,2.3147,0,0
20110117,2.3147,2.3439,2.3147,2.3244,0,0
20110118,2.3633,2.3633,2.3147,2.3147,0,0
20110119,2.3244,2.3244,2.2077,2.2758,0,0
20110120,2.2758,2.2952,2.2758,2.2855,0,0
20110121,2.2758,2.3244,2.2758,2.3147,0,0
20110124,2.3244,2.3244,2.2855,2.2855,0,0
20110125,2.2855,2.3147,2.2758,2.2758,0,0
20110126,2.2758,2.2758,2.2758,2.2758,0,0
20110127,2.2563,2.3147,2.2563,2.2855,0,0
20110128,2.305,2.305,2.305,2.305,0,0
20110131,2.1785,2.2952,2.1785,2.2855,0,0
20110201,2.2952,2.2952,2.2369,2.2855,0,0
20110202,2.2855,2.3244,2.2661,2.2855,0,0
20110203,2.2661,2.3147,2.2661,2.2758,0,0
20110204,2.2758,2.2758,2.2758,2.2758,0,0
20110207,2.2855,2.4022,2.2758,2.4022,0,0
20110208,2.4119,2.4119,2.3925,2.3925,0,0
20110209,2.3925,2.3925,2.305,2.3536,0,0
20110210,2.3536,2.3925,2.3147,2.3925,0,0
20110211,2.3341,2.3828,2.2952,2.3828,0,0
20110214,2.3925,2.3925,2.305,2.3633,0,0
20110215,2.3925,2.3925,2.3341,2.3341,0,0
20110216,2.3244,2.3341,2.305,2.305,0,0
20110217,2.2855,2.305,2.2855,2.305,0,0
20110218,2.2952,2.305,2.2855,2.305,0,0
20110221,2.2952,2.305,2.2952,2.305,0,0
20110222,2.305,2.305,2.305,2.305,0,0
20110223,2.305,2.3536,2.305,2.3341,0,0
20110224,2.3536,2.3828,2.3536,2.3633,0,0
20110225,2.3633,2.3633,2.3536,2.3633,0,0
20110228,2.3633,2.3633,2.3341,2.3633,0,0
20110301,2.3633,2.3633,2.3244,2.3439,0,0
20110302,2.3633,2.3925,2.3341,2.3925,0,0
20110303,2.3925,2.4119,2.3439,2.4119,0,0
20110304,2.4022,2.4411,2.4022,2.4411,0,0
20110307,2.4411,2.4703,2.4314,2.4508,0,0
20110308,2.48,2.4897,2.4508,2.4703,0,0
20110309,2.4703,2.48,2.4508,2.4703,0,0
20110310,2.4703,2.4703,2.4314,2.4314,0,0
20110311,2.4217,2.4314,2.373,2.373,0,0
20110314,2.3633,2.4119,2.3633,2.4119,0,0
20110315,2.3633,2.4508,2.3633,2.4508,0,0
20110316,2.4606,2.4606,2.4508,2.4508,0,0
20110317,2.4703,2.4703,2.4508,2.4508,0,0
20110318,2.4703,2.4703,2.4314,2.4314,0,0
20110321,2.4119,2.4314,2.4119,2.4314,0,0
20110322,2.4508,2.4995,2.4314,2.48,0,0
20110323,2.48,2.48,2.3244,2.3244,0,0
20110324,2.3341,2.3341,2.2952,2.2952,0,0
20110325,2.2952,2.305,2.2563,2.305,0,0
20110328,2.305,2.3147,2.2952,2.2952,0,0
20110329,2.305,2.3147,2.2661,2.305,0,0
20110330,2.3147,2.3147,2.305,2.305,0,0
20110331,2.305,2.305,2.2661,2.2855,0,0
20110401,2.305,2.305,2.2661,2.2952,0,0
20110404,2.2952,2.2952,2.198,2.2563,0,0
20110405,2.198,2.2563,2.198,2.2272,0,0
20110406,2.2077,2.2369,2.1883,2.2077,0,0
20110407,2.2563,2.2563,2.2077,2.2369,0,0
20110408,2.2272,2.2466,2.2077,2.2369,0,0
20110411,2.2077,2.2369,2.198,2.198,0,0
20110412,2.198,2.198,2.1591,2.1883,0,0
20110413,2.1883,2.2272,2.1591,2.1688,0,0
20110414,2.1883,2.1883,2.1591,2.1785,0,0
20110415,2.2077,2.2077,2.1591,2.1591,0,0
20110418,2.1591,2.1785,2.1007,2.1785,0,0
20110419,2.1688,2.1883,2.1688,2.1883,0,0
20110420,2.1883,2.1883,2.1688,2.1785,0,0
20110421,2.198,2.198,2.1396,2.1396,0,0
20110426,2.1396,2.1396,2.091,2.1104,0,0
20110427,2.1202,2.1202,2.1104,2.1202,0,0
20110428,2.1202,2.1202,2.0715,2.0715,0,0
20110429,2.0813,2.0813,2.0132,2.0715,0,0
20110502,2.1202,2.1202,2.0715,2.0715,0,0
20110504,2.0813,2.0813,2.0618,2.0618,0,0
20110505,2.0715,2.0715,2.0424,2.0424,0,0
20110506,2.0424,2.0424,2.0132,2.0132,0,0
20110509,2.0132,2.0132,1.9743,2.0132,0,0
20110510,2.0132,2.0132,1.9354,1.9937,0,0
20110511,1.984,1.9937,1.984,1.984,0,0
20110512,1.984,2.0132,1.984,1.984,0,0
20110513,1.9937,1.9937,1.7992,1.7992,0,0
20110516,1.702,1.7992,1.6825,1.702,0,0
20110517,1.7117,1.7117,1.6728,1.6825,0,0
20110518,1.7117,1.7117,1.6728,1.6728,0,0
20110519,1.6922,1.6922,1.6242,1.6242,0,0
20110520,1.6047,1.6436,1.6047,1.6339,0,0
20110523,1.6339,1.6533,1.6339,1.6436,0,0
20110524,1.6436,1.6436,1.6339,1.6436,0,0
20110525,1.6436,1.6436,1.6436,1.6436,0,0
20110526,1.6533,1.6533,1.6339,1.6339,0,0
20110527,1.6339,1.6533,1.6339,1.6533,0,0
20110530,1.6533,1.6922,1.6436,1.6436,0,0
20110531,1.6533,1.6533,1.6436,1.6436,0,0
20110601,1.6533,1.6533,1.6436,1.6436,0,0
20110602,1.6533,1.6533,1.6533,1.6533,0,0
20110603,1.6533,1.6631,1.6533,1.6533,0,0
20110606,1.6533,1.6922,1.6533,1.6922,0,0
20110607,1.6922,1.6922,1.6533,1.6922,0,0
20110608,1.6922,1.7409,1.6922,1.7117,0,0
20110609,1.7117,1.7409,1.7117,1.7409,0,0
20110610,1.7506,1.7506,1.702,1.7506,0,0
20110613,1.7506,1.7603,1.7311,1.7409,0,0
20110614,1.7506,1.7506,1.7214,1.7506,0,0
20110615,1.7506,1.7506,1.702,1.7117,0,0
20110616,1.7117,1.7117,1.6631,1.6728,0,0
20110617,1.6825,1.6825,1.6631,1.6631,0,0
20110620,1.6631,1.6631,1.6339,1.6339,0,0
20110621,1.6339,1.6339,1.4977,1.5853,0,0
20110622,1.5853,1.5853,1.4977,1.5269,0,0
20110624,1.5075,1.5075,1.381,1.4102,0,0
20110627,1.4102,1.4102,1.3032,1.3032,0,0
20110628,1.3421,1.3713,1.2935,1.313,0,0
20110629,1.313,1.3324,1.313,1.3227,0,0
20110630,1.3421,1.4102,1.3421,1.3421,0,0
20110701,1.3519,1.3908,1.3324,1.3324,0,0
20110704,1.3421,1.3421,1.2935,1.2935,0,0
20110705,1.3032,1.3032,1.2546,1.274,0,0
20110706,1.274,1.274,1.2449,1.2643,0,0
20110707,1.2546,1.2643,1.2546,1.2546,0,0
20110708,1.2546,1.2546,1.2449,1.2546,0,0
20110711,1.2546,1.2546,1.2351,1.2351,0,0
20110712,1.2351,1.2351,1.2254,1.2254,0,0
20110713,1.2351,1.2546,1.2254,1.2254,0,0
20110714,1.1865,1.2157,1.1865,1.1865,0,0
20110715,1.1768,1.1768,1.1573,1.1573,0,0
20110718,1.1379,1.1476,1.099,1.1282,0,0
20110719,1.1282,1.1282,1.0698,1.0795,0,0
20110720,1.0504,1.0795,1.0309,1.0795,0,0
20110721,1.0893,1.0893,1.0309,1.0795,0,0
20110722,1.0795,1.0795,1.0698,1.0698,0,0
20110725,1.0698,1.0893,1.0698,1.0893,0,0
20110726,1.0795,1.0795,1.0698,1.0795,0,0
20110727,1.0795,1.0795,1.0504,1.0504,0,0
20110728,1.0504,1.0795,1.0309,1.0795,0,0
20110729,1.0698,1.0698,1.0406,1.0698,0,0
20110801,1.0698,1.1671,1.0698,1.1087,0,0
20110802,1.1087,1.1379,1.1087,1.1087,0,0
20110803,1.099,1.1087,1.0698,1.0795,0,0
20110804,1.0795,1.0795,0.9823,0.9823,0,0
20110805,0.9434,0.9823,0.9142,0.9337,0,0
20110808,0.8656,0.8948,0.8656,0.8656,0,0
20110809,0.8656,0.8948,0.8364,0.8656,0,0
20110810,0.8753,0.9239,0.8753,0.9045,0,0
20110811,0.8948,0.9531,0.8948,0.9142,0,0
20110812,0.9531,0.9823,0.9142,0.9823,0,0
20110816,1.0795,1.0795,1.0406,1.0504,0,0
20110817,1.0504,1.0601,1.0504,1.0504,0,0
20110818,1.0504,1.0504,0.9434,0.9434,0,0
20110819,0.9434,0.9434,0.8948,0.9434,0,0
20110822,0.9628,0.9823,0.9628,0.9628,0,0
20110823,0.992,0.992,0.9434,0.9628,0,0
20110824,0.9726,0.9726,0.9337,0.9531,0,0
20110825,0.9531,0.9531,0.9337,0.9531,0,0
20110826,0.9531,0.9531,0.9531,0.9531,0,0
20110829,0.9628,0.9628,0.9628,0.9628,0,0
20110830,0.9823,0.9823,0.9628,0.9628,0,0
20110831,0.9823,0.9823,0.9531,0.9531,0,0
20110901,0.9434,0.9726,0.9337,0.9726,0,0
20110902,0.9726,0.9726,0.9239,0.9337,0,0
20110905,0.885,0.9337,0.8558,0.8656,0,0
20110906,0.8461,0.8558,0.8364,0.8558,0,0
20110907,0.8364,0.8656,0.8364,0.8558,0,0
20110908,0.8558,0.8948,0.8558,0.8753,0,0
20110909,0.8753,0.8948,0.8753,0.8948,0,0
20110912,0.8753,0.8753,0.8461,0.8461,0,0
20110913,0.8461,0.8461,0.8267,0.8364,0,0
20110914,0.8364,0.8364,0.8267,0.8267,0,0
20110915,0.8267,0.8267,0.7878,0.8072,0,0
20110916,0.8072,0.8072,0.7586,0.7683,0,0
20110919,0.778,0.778,0.7683,0.7683,0,0
20110920,0.7683,0.7683,0.7683,0.7683,0,0
20110921,0.7683,0.7683,0.7586,0.7586,0,0
20110922,0.7489,0.7489,0.7294,0.7294,0,0
20110923,0.7197,0.7294,0.71,0.7197,0,0
20110926,0.7002,0.71,0.6419,0.7002,0,0
20110927,0.7002,0.7002,0.6711,0.6905,0,0
20110928,0.6905,0.6905,0.6808,0.6905,0,0
20110929,0.6905,0.6905,0.6711,0.6808,0,0
20110930,0.6808,0.6808,0.6613,0.6711,0,0
20111003,0.6711,0.6711,0.6322,0.6322,0,0
20111004,0.6322,0.6322,0.6224,0.6322,0,0
20111005,0.6322,0.6516,0.6322,0.6419,0,0
20111006,0.6516,0.6516,0.6322,0.6516,0,0
20111007,0.6711,0.6711,0.6516,0.6516,0,0
20111010,0.6613,0.6613,0.6516,0.6516,0,0
20111011,0.6516,0.6613,0.6419,0.6516,0,0
20111012,0.6613,0.6711,0.6419,0.6516,0,0
20111013,0.6516,0.6711,0.6516,0.6516,0,0
20111014,0.6711,0.7197,0.6711,0.7197,0,0
20111017,0.7391,0.885,0.7391,0.778,0,0
20111018,0.778,0.778,0.7197,0.7294,0,0
20111019,0.7294,0.7489,0.71,0.7197,0,0
20111020,0.71,0.7197,0.6905,0.71,0,0
20111021,0.71,0.7391,0.6808,0.7391,0,0
20111024,0.7489,0.7683,0.7391,0.7683,0,0
20111025,0.7683,0.7683,0.7294,0.7294,0,0
20111026,0.7391,0.7391,0.7197,0.7197,0,0
20111027,0.7197,0.7878,0.7197,0.778,0,0
20111028,0.8169,0.8169,0.778,0.778,0,0
20111031,0.7878,0.7878,0.7586,0.7683,0,0
20111102,0.7391,0.7489,0.71,0.7391,0,0
20111103,0.7294,0.7683,0.7294,0.7683,0,0
20111104,0.7878,0.7878,0.7489,0.778,0,0
20111107,0.778,0.7878,0.7683,0.7683,0,0
20111108,0.7683,0.778,0.7586,0.7683,0,0
20111109,0.7683,0.7683,0.7489,0.7489,0,0
20111110,0.7294,0.7391,0.7294,0.7391,0,0
20111114,0.7489,0.7489,0.7391,0.7391,0,0
20111115,0.71,0.71,0.6808,0.7002,0,0
20111116,0.6905,0.7002,0.6808,0.7002,0,0
20111117,0.7002,0.7002,0.6808,0.7002,0,0
20111118,0.71,0.71,0.6613,0.6613,0,0
20111121,0.6516,0.6516,0.6224,0.6224,0,0
20111122,0.6224,0.6322,0.5835,0.5835,0,0
20111123,0.5738,0.603,0.5252,0.5738,0,0
20111124,0.5738,0.5738,0.5641,0.5641,0,0
20111125,0.5738,0.5738,0.5641,0.5641,0,0
20111128,0.5641,0.5641,0.5155,0.5446,0,0
20111129,0.5349,0.5641,0.5349,0.5641,0,0
20111130,0.5641,0.5738,0.5446,0.5738,0,0
20111201,0.5738,0.5933,0.5349,0.5641,0,0
20111202,0.5641,0.5641,0.5446,0.5544,0,0
20111205,0.5544,0.5544,0.5349,0.5349,0,0
20111206,0.5349,0.5544,0.5349,0.5544,0,0
20111207,0.5544,0.5544,0.5155,0.5349,0,0
20111208,0.5446,0.5446,0.5155,0.5155,0,0
20111209,0.5252,0.5252,0.48628,0.5252,0,0
20111212,0.5155,0.5349,0.5155,0.5349,0,0
20111213,0.5349,0.5544,0.5349,0.5544,0,0
20111214,0.5544,0.5641,0.5446,0.5544,0,0
20111215,0.5544,0.5544,0.5446,0.5544,0,0
20111216,0.5544,0.5641,0.5446,0.5544,0,0
20111219,0.5544,0.5641,0.5544,0.5544,0,0
20111220,0.5544,0.5544,0.5544,0.5544,0,0
20111221,0.5738,0.5738,0.5641,0.5641,0,0
20111222,0.5738,0.5738,0.5641,0.5738,0,0
20111223,0.5738,0.5738,0.5738,0.5738,0,0
20111227,0.5738,0.5738,0.5641,0.5641,0,0
20111228,0.5641,0.5641,0.5641,0.5641,0,0
20111229,0.5641,0.5641,0.5544,0.5641,0,0
20111230,0.5641,0.5641,0.5641,0.5641,0,0
20120102,0.5641,0.5641,0.5641,0.5641,0,0
20120103,0.5641,0.5641,0.5544,0.5641,0,0
20120104,0.5641,0.5641,0.5446,0.5446,0,0
20120105,0.5544,0.5641,0.5446,0.5544,0,0
20120109,0.5641,0.5641,0.5544,0.5641,0,0
20120110,0.5641,0.5738,0.5641,0.5738,0,0
20120111,0.5738,0.6224,0.5738,0.6224,0,0
20120112,0.6127,0.6711,0.6127,0.6516,0,0
20120113,0.6516,0.6711,0.6419,0.6419,0,0
20120116,0.6419,0.6516,0.6419,0.6516,0,0
20120117,0.6516,0.71,0.6516,0.71,0,0
20120118,0.7489,0.7586,0.7391,0.7489,0,0
20120119,0.7489,0.7683,0.7489,0.7489,0,0
20120120,0.7489,0.7586,0.7294,0.7294,0,0
20120123,0.7294,0.7294,0.6905,0.7294,0,0
20120124,0.7197,0.7878,0.7197,0.7878,0,0
20120125,0.7878,0.8461,0.7878,0.8461,0,0
20120126,0.8753,0.8948,0.8753,0.885,0,0
20120127,0.885,0.9142,0.885,0.9142,0,0
20120130,0.9045,0.9239,0.9045,0.9239,0,0
20120131,0.9239,0.9434,0.9142,0.9337,0,0
20120201,0.9337,0.9337,0.8948,0.9337,0,0
20120202,0.9239,0.9337,0.9239,0.9337,0,0
20120203,0.9337,0.9434,0.9142,0.9337,0,0
20120206,0.9142,0.9434,0.9142,0.9337,0,0
20120207,0.9337,0.9434,0.9142,0.9239,0,0
20120208,0.9337,0.9434,0.9337,0.9434,0,0
20120209,0.9434,0.9434,0.9142,0.9337,0,0
20120210,0.9337,0.9337,0.9045,0.9239,0,0
20120213,0.9239,0.992,0.9239,0.992,0,0
20120214,1.0309,1.0309,0.9628,0.9726,0,0
20120215,0.9726,1.0406,0.9726,1.0406,0,0
20120216,1.0406,1.0406,1.0115,1.0309,0,0
20120217,1.0406,1.1184,1.0406,1.0504,0,0
20120220,1.099,1.1379,1.0893,1.1282,0,0
20120221,1.1379,1.1476,1.0601,1.0601,0,0
20120222,1.0504,1.0504,1.0017,1.0309,0,0
20120223,1.0115,1.0698,1.0115,1.0504,0,0
20120224,1.0504,1.0698,1.0309,1.0309,0,0
20120227,1.0406,1.0406,1.0212,1.0309,0,0
20120228,1.0309,1.0309,1.0115,1.0115,0,0
20120229,0.9726,0.9726,0.9142,0.9142,0,0
20120301,0.885,0.9726,0.885,0.9628,0,0
20120302,0.9434,0.9628,0.9434,0.9628,0,0
20120305,0.9531,0.9726,0.9434,0.9531,0,0
20120306,0.9531,0.9531,0.9142,0.9142,0,0
20120307,0.9239,0.9337,0.9045,0.9337,0,0
20120308,0.9337,0.9628,0.9337,0.9628,0,0
20120309,0.9628,0.9628,0.9434,0.9531,0,0
20120312,0.9531,0.9531,0.9142,0.9239,0,0
20120313,0.9337,0.9337,0.9142,0.9239,0,0
20120314,0.9239,0.9434,0.9239,0.9239,0,0
20120315,0.9239,0.9337,0.9239,0.9239,0,0
20120316,0.9142,0.9142,0.8656,0.8656,0,0
20120319,0.885,0.8948,0.8656,0.8948,0,0
20120320,0.8753,0.8948,0.8753,0.8948,0,0
20120321,0.8753,0.8753,0.8364,0.8461,0,0
20120322,0.8558,0.8558,0.8072,0.8072,0,0
20120323,0.7878,0.8364,0.7878,0.8267,0,0
20120326,0.8267,0.8267,0.7975,0.8169,0,0
20120327,0.8169,0.8364,0.8169,0.8364,0,0
20120328,0.8364,0.8656,0.8364,0.8656,0,0
20120329,0.8558,0.8753,0.8558,0.8753,0,0
20120330,0.885,0.885,0.8461,0.8753,0,0
20120402,0.8753,0.8753,0.8656,0.8753,0,0
20120403,0.8753,0.8753,0.8558,0.8558,0,0
20120404,0.8558,0.8558,0.8072,0.8072,0,0
20120405,0.7878,0.8267,0.7878,0.8072,0,0
20120410,0.7878,0.8072,0.7489,0.7586,0,0
20120411,0.7294,0.7586,0.7294,0.7586,0,0
20120412,0.7586,0.7586,0.7489,0.7586,0,0
20120413,0.7586,0.7683,0.7489,0.7489,0,0
20120416,0.7683,0.778,0.7683,0.778,0,0
20120417,0.7683,0.7878,0.7683,0.7683,0,0
20120418,0.7683,0.8072,0.7683,0.7975,0,0
20120419,0.8072,0.8364,0.7975,0.8169,0,0
20120420,0.8364,0.8364,0.8072,0.8267,0,0
20120423,0.8169,0.8169,0.7391,0.7683,0,0
20120424,0.7002,0.8169,0.7002,0.8169,0,0
20120425,0.778,0.778,0.7489,0.7489,0,0
20120426,0.7489,0.7489,0.7002,0.71,0,0
20120427,0.7002,0.7489,0.7002,0.7489,0,0
20120430,0.7489,0.7683,0.7489,0.7683,0,0
20120502,0.7683,0.778,0.7586,0.7683,0,0
20120504,0.7683,0.778,0.7683,0.778,0,0
20120507,0.7683,0.7683,0.7294,0.7489,0,0
20120508,0.7586,0.7586,0.7391,0.7391,0,0
20120509,0.7391,0.7391,0.7294,0.7294,0,0
20120510,0.7294,0.7294,0.71,0.7294,0,0
20120511,0.71,0.7294,0.71,0.71,0,0
20120514,0.71,0.71,0.7002,0.71,0,0
20120515,0.71,0.71,0.71,0.71,0,0
20120516,0.6905,0.6905,0.6419,0.6613,0,0
20120517,0.6419,0.6419,0.6127,0.6127,0,0
20120518,0.6127,0.6613,0.5835,0.6613,0,0
20120521,0.6516,0.7489,0.6516,0.7489,0,0
20120522,0.7489,0.7683,0.7391,0.7391,0,0
20120523,0.7391,0.7391,0.7197,0.7197,0,0
20120524,0.7197,0.7197,0.7002,0.7002,0,0
20120525,0.71,0.71,0.6808,0.6808,0,0
20120528,0.6808,0.6808,0.6613,0.6808,0,0
20120529,0.6808,0.6808,0.6613,0.6613,0,0
20120530,0.6711,0.6711,0.6322,0.6322,0,0
20120531,0.6224,0.6224,0.5835,0.6224,0,0
20120601,0.6127,0.6516,0.603,0.6127,0,0
20120604,0.6127,0.6127,0.5641,0.5835,0,0
20120605,0.5641,0.5835,0.5446,0.5544,0,0
20120606,0.5446,0.5446,0.5349,0.5349,0,0
20120608,0.5252,0.5738,0.5252,0.5738,0,0
20120611,0.5738,0.5933,0.5738,0.5933,0,0
20120612,0.5933,0.6224,0.5933,0.6127,0,0
20120613,0.6224,0.6711,0.6224,0.6711,0,0
20120614,0.6711,0.7294,0.6711,0.7294,0,0
20120615,0.7391,0.7683,0.7294,0.7683,0,0
20120618,0.7683,0.7683,0.7683,0.7683,0,0
20120619,0.7683,0.7683,0.7586,0.7683,0,0
20120620,0.7683,0.7683,0.71,0.71,0,0
20120621,0.71,0.7197,0.6613,0.6613,0,0
20120622,0.6711,0.6711,0.6224,0.6322,0,0
20120625,0.6224,0.6224,0.5933,0.5933,0,0
20120626,0.5933,0.6322,0.5933,0.6224,0,0
20120627,0.6419,0.6613,0.6127,0.6127,0,0
20120628,0.603,0.6419,0.5738,0.5835,0,0
20120629,0.5835,0.5835,0.5252,0.5252,0,0
20120702,0.5252,0.5252,0.4571,0.47655,0,0
20120703,0.47655,0.48628,0.42792,0.43765,0,0
20120704,0.43765,0.43765,0.4182,0.42792,0,0
20120705,0.42792,0.4571,0.42792,0.4571,0,0
20120706,0.4571,0.48628,0.4571,0.47655,0,0
20120709,0.46683,0.496,0.46683,0.496,0,0
20120710,0.5155,0.5155,0.48628,0.496,0,0
20120711,0.496,0.496,0.4571,0.46683,0,0
20120712,0.4571,0.4571,0.44738,0.44738,0,0
20120713,0.4571,0.4571,0.44738,0.4571,0,0
20120716,0.4571,0.4571,0.4571,0.4571,0,0
20120717,0.4571,0.4571,0.44738,0.4571,0,0
20120718,0.44738,0.47655,0.44738,0.47655,0,0
20120719,0.47655,0.47655,0.4571,0.4571,0,0
20120720,0.4571,0.4571,0.4571,0.4571,0,0
20120723,0.44738,0.44738,0.43765,0.44738,0,0
20120724,0.44738,0.44738,0.43765,0.44738,0,0
20120725,0.43765,0.44738,0.43765,0.44738,0,0
20120726,0.44738,0.44738,0.42792,0.43765,0,0
20120727,0.43765,0.44738,0.42792,0.44738,0,0
20120730,0.43765,0.44738,0.43765,0.44738,0,0
20120731,0.44738,0.44738,0.42792,0.43765,0,0
20120801,0.42792,0.43765,0.39875,0.4182,0,0
20120802,0.4182,0.44738,0.40847,0.4182,0,0
20120803,0.42792,0.42792,0.39875,0.40847,0,0
20120806,0.40847,0.40847,0.40847,0.40847,0,0
20120807,0.40847,0.42792,0.40847,0.42792,0,0
20120808,0.42792,0.44738,0.42792,0.43765,0,0
20120809,0.43765,0.43765,0.43765,0.43765,0,0
20120810,0.43765,0.43765,0.43765,0.43765,0,0
20120813,0.42792,0.44738,0.42792,0.44738,0,0
20120814,0.44738,0.44738,0.42792,0.42792,0,0
20120816,0.42792,0.42792,0.42792,0.42792,0,0
20120817,0.42792,0.42792,0.42792,0.42792,0,0
20120820,0.43765,0.43765,0.42792,0.42792,0,0
20120821,0.43765,0.43765,0.4182,0.43765,0,0
20120822,0.43765,0.43765,0.42792,0.43765,0,0
20120823,0.43765,0.43765,0.42792,0.43765,0,0
20120824,0.43765,0.4571,0.43765,0.4571,0,0
20120827,0.46683,0.46683,0.4571,0.4571,0,0
20120828,0.44738,0.4571,0.43765,0.44738,0,0
20120829,0.44738,0.44738,0.42792,0.44738,0,0
20120830,0.44738,0.4571,0.43765,0.44738,0,0
20120831,0.43765,0.44738,0.4182,0.43765,0,0
20120903,0.43765,0.43765,0.43765,0.43765,0,0
20120904,0.44738,0.46683,0.43765,0.46683,0,0
20120905,0.43765,0.46683,0.43765,0.4571,0,0
20120906,0.4571,0.4571,0.43765,0.4571,0,0
20120907,0.44738,0.48628,0.44738,0.46683,0,0
20120910,0.46683,0.496,0.46683,0.47655,0,0
20120911,0.47655,0.48628,0.47655,0.47655,0,0
20120912,0.47655,0.48628,0.47655,0.47655,0,0
20120913,0.47655,0.47655,0.47655,0.47655,0,0
20120914,0.47655,0.47655,0.46683,0.47655,0,0
20120917,0.47655,0.47655,0.46683,0.47655,0,0
20120918,0.47655,0.47655,0.46683,0.46683,0,0
20120919,0.46683,0.47655,0.44738,0.47655,0,0
20120920,0.47655,0.47655,0.43765,0.44738,0,0
20120921,0.44738,0.4571,0.44738,0.4571,0,0
20120924,0.46683,0.47655,0.46683,0.47655,0,0
20120925,0.47655,0.47655,0.46683,0.47655,0,0
20120926,0.47655,0.47655,0.46683,0.47655,0,0
20120927,0.47655,0.5057,0.46683,0.5057,0,0
20120928,0.5057,0.5057,0.48628,0.48628,0,0
20121001,0.48628,0.496,0.48628,0.496,0,0
20121002,0.48628,0.496,0.48628,0.496,0,0
20121003,0.496,0.496,0.47655,0.48628,0,0
20121004,0.48628,0.48628,0.46683,0.48628,0,0
20121005,0.48628,0.48628,0.47655,0.48628,0,0
20121008,0.48628,0.48628,0.48628,0.48628,0,0
20121009,0.48628,0.5155,0.48628,0.496,0,0
20121010,0.496,0.496,0.496,0.496,0,0
20121011,0.496,0.496,0.48628,0.496,0,0
20121012,0.48628,0.5057,0.48628,0.496,0,0
20121015,0.496,0.496,0.48628,0.496,0,0
20121016,0.496,0.496,0.48628,0.48628,0,0
20121017,0.48628,0.496,0.47655,0.496,0,0
20121018,0.496,0.496,0.48628,0.496,0,0
20121019,0.496,0.496,0.48628,0.48628,0,0
20121022,0.496,0.496,0.48628,0.496,0,0
20121023,0.48628,0.496,0.48628,0.496,0,0
20121024,0.47655,0.48628,0.46683,0.47655,0,0
20121025,0.47655,0.47655,0.47655,0.47655,0,0
20121026,0.47655,0.47655,0.46683,0.47655,0,0
20121029,0.47655,0.47655,0.4571,0.4571,0,0
20121030,0.4571,0.46683,0.44738,0.46683,0,0
20121031,0.46683,0.496,0.46683,0.48628,0,0
20121102,0.48628,0.496,0.46683,0.47655,0,0
20121105,0.46683,0.48628,0.46683,0.47655,0,0
20121106,0.48628,0.48628,0.47655,0.47655,0,0
20121107,0.48628,0.48628,0.47655,0.47655,0,0
20121108,0.47655,0.48628,0.47655,0.47655,0,0
20121109,0.47655,0.48628,0.47655,0.47655,0,0
20121112,0.47655,0.47655,0.47655,0.47655,0,0
20121113,0.47655,0.47655,0.4571,0.47655,0,0
20121114,0.4571,0.47655,0.4571,0.47655,0,0
20121115,0.46683,0.47655,0.42792,0.47655,0,0
20121116,0.44738,0.47655,0.44738,0.46683,0,0
20121119,0.46683,0.46683,0.46683,0.46683,0,0
20121120,0.47655,0.48628,0.46683,0.48628,0,0
20121121,0.48628,0.48628,0.48628,0.48628,0,0
20121122,0.48628,0.48628,0.48628,0.48628,0,0
20121123,0.48628,0.48628,0.48628,0.48628,0,0
20121126,0.48628,0.48628,0.48628,0.48628,0,0
20121127,0.47655,0.47655,0.47655,0.47655,0,0
20121128,0.47655,0.47655,0.4571,0.46683,0,0
20121129,0.46683,0.48628,0.43765,0.43765,0,0
20121130,0.4571,0.48628,0.4571,0.47655,0,0
20121203,0.48628,0.5057,0.47655,0.5057,0,0
20121204,0.496,0.496,0.496,0.496,0,0
20121205,0.496,0.496,0.496,0.496,0,0
20121206,0.496,0.496,0.47655,0.496,0,0
20121207,0.496,0.5057,0.47655,0.496,0,0
20121210,0.496,0.5057,0.48628,0.496,0,0
20121211,0.496,0.496,0.48628,0.496,0,0
20121212,0.496,0.496,0.48628,0.496,0,0
20121213,0.496,0.5446,0.47655,0.5446,0,0
20121214,0.5446,0.5641,0.5446,0.5544,0,0
20121217,0.5738,0.5738,0.5349,0.5349,0,0
20121218,0.5446,0.5446,0.5252,0.5252,0,0
20121219,0.5349,0.5446,0.5252,0.5446,0,0
20121220,0.5446,0.5446,0.5252,0.5349,0,0
20121221,0.5349,0.5349,0.5252,0.5252,0,0
20121227,0.5252,0.5349,0.5155,0.5349,0,0
20121228,0.5349,0.5446,0.5252,0.5446,0,0
20130102,0.5446,0.5446,0.5349,0.5349,0,0
20130103,0.5252,0.5349,0.5155,0.5252,0,0
20130104,0.5252,0.5252,0.5155,0.5252,0,0
20130107,0.5252,0.5252,0.5155,0.5252,0,0
20130108,0.5252,0.5252,0.5155,0.5155,0,0
20130109,0.5155,0.5155,0.5155,0.5155,0,0
20130110,0.5252,0.5252,0.5155,0.5155,0,0
20130111,0.5155,0.5252,0.5155,0.5252,0,0
20130114,0.5155,0.5252,0.5155,0.5252,0,0
20130115,0.5252,0.5252,0.5155,0.5155,0,0
20130117,0.5155,0.5252,0.5155,0.5252,0,0
20130118,0.5252,0.5252,0.5155,0.5155,0,0
20130121,0.5252,0.6322,0.5252,0.603,0,0
20130122,0.5933,0.603,0.5835,0.5835,0,0
20130123,0.5933,0.5933,0.5738,0.5835,0,0
20130124,0.5738,0.6127,0.5738,0.603,0,0
20130125,0.603,0.603,0.5933,0.603,0,0
20130128,0.603,0.6419,0.603,0.6322,0,0
20130129,0.6322,0.6419,0.6127,0.6322,0,0
20130130,0.6322,0.6613,0.603,0.6322,0,0
20130131,0.6224,0.6224,0.603,0.6127,0,0
20130201,0.603,0.6127,0.5835,0.5933,0,0
20130204,0.5738,0.603,0.5738,0.5933,0,0
20130205,0.5933,0.6127,0.5933,0.6127,0,0
20130206,0.6127,0.6127,0.603,0.603,0,0
20130207,0.603,0.6127,0.5835,0.5933,0,0
20130208,0.5933,0.5933,0.5738,0.5933,0,0
20130211,0.603,0.6224,0.603,0.6127,0,0
20130212,0.6127,0.6224,0.6127,0.6224,0,0
20130213,0.6224,0.6322,0.6127,0.6127,0,0
20130214,0.6127,0.6224,0.6127,0.6127,0,0
20130215,0.6127,0.6224,0.6127,0.6224,0,0
20130218,0.6224,0.6516,0.6224,0.6516,0,0
20130219,0.6516,0.6808,0.6322,0.6808,0,0
20130220,0.6808,0.6808,0.6516,0.6516,0,0
20130221,0.6322,0.6613,0.6322,0.6613,0,0
20130222,0.6516,0.6711,0.6516,0.6711,0,0
20130225,0.6613,0.6905,0.6613,0.6808,0,0
20130226,0.6808,0.7197,0.6808,0.71,0,0
20130227,0.71,0.7197,0.6808,0.6905,0,0
20130228,0.6808,0.7002,0.6808,0.6905,0,0
20130301,0.6808,0.6905,0.6808,0.6905,0,0
20130304,0.6905,0.6905,0.6711,0.6711,0,0
20130305,0.6711,0.6711,0.6516,0.6516,0,0
20130306,0.6516,0.6711,0.6516,0.6711,0,0
20130307,0.6711,0.6808,0.6711,0.6711,0,0
20130308,0.6711,0.6711,0.6322,0.6613,0,0
20130311,0.6808,0.6808,0.6516,0.6613,0,0
20130312,0.6613,0.6711,0.6516,0.6516,0,0
20130313,0.6516,0.6613,0.6127,0.6419,0,0
20130314,0.6419,0.6419,0.6224,0.6224,0,0
20130315,0.6322,0.6516,0.6127,0.6322,0,0
20130318,0.6516,0.6613,0.6516,0.6613,0,0
20130319,0.6516,0.6613,0.6516,0.6516,0,0
20130320,0.6516,0.6613,0.6516,0.6613,0,0
20130321,0.6516,0.6516,0.6224,0.6419,0,0
20130322,0.6224,0.6711,0.5933,0.6711,0,0
20130325,0.6808,0.6808,0.6516,0.6613,0,0
20130326,0.6419,0.6613,0.603,0.6224,0,0
20130327,0.6516,0.6516,0.6224,0.6224,0,0
20130328,0.6419,0.6516,0.6322,0.6419,0,0
20130402,0.6322,0.6419,0.6127,0.6224,0,0
20130403,0.6224,0.6224,0.6224,0.6224,0,0
20130404,0.6224,0.6224,0.603,0.603,0,0
20130405,0.6224,0.6322,0.603,0.603,0,0
20130408,0.5835,0.6224,0.5835,0.603,0,0
20130409,0.6127,0.6224,0.6127,0.6127,0,0
20130410,0.603,0.6127,0.5641,0.5738,0,0
20130411,0.5738,0.5738,0.5544,0.5738,0,0
20130412,0.5738,0.5738,0.5544,0.5544,0,0
20130415,0.5544,0.5544,0.5544,0.5544,0,0
20130417,0.5641,0.5641,0.5446,0.5544,0,0
20130418,0.5446,0.5446,0.5252,0.5252,0,0
20130419,0.5349,0.5349,0.496,0.5252,0,0
20130422,0.5349,0.5349,0.496,0.5155,0,0
20130423,0.496,0.5155,0.496,0.5155,0,0
20130424,0.5155,0.5252,0.5155,0.5252,0,0
20130425,0.5155,0.5252,0.5057,0.5057,0,0
20130426,0.5057,0.5155,0.496,0.5155,0,0
20130429,0.5252,0.5349,0.5252,0.5252,0,0
20130430,0.5252,0.5252,0.5252,0.5252,0,0
20130502,0.5252,0.5252,0.5252,0.5252,0,0
20130506,0.5252,0.5252,0.5057,0.5155,0,0
20130507,0.496,0.5252,0.496,0.5252,0,0
20130508,0.5252,0.5349,0.5155,0.5349,0,0
20130509,0.5446,0.5544,0.5349,0.5349,0,0
20130510,0.5446,0.5544,0.5349,0.5544,0,0
20130513,0.5544,0.5738,0.5544,0.5738,0,0
20130514,0.5738,0.5933,0.5738,0.5933,0,0
20130515,0.603,0.6613,0.603,0.6613,0,0
20130516,0.6711,0.6711,0.6516,0.6711,0,0
20130517,0.6808,0.6808,0.6613,0.6711,0,0
20130520,0.6613,0.6711,0.6516,0.6613,0,0
20130521,0.6613,0.6613,0.6516,0.6613,0,0
20130522,0.6516,0.6516,0.6516,0.6516,0,0
20130523,0.6516,0.6516,0.603,0.6516,0,0
20130524,0.6516,0.6516,0.6322,0.6419,0,0
20130527,0.603,0.6613,0.603,0.6613,0,0
20130528,0.6419,0.6613,0.6419,0.6516,0,0
20130529,0.6711,0.6711,0.6322,0.6516,0,0
20130531,0.6419,0.6613,0.6419,0.6516,0,0
20130603,0.6613,0.6613,0.6516,0.6613,0,0
20130604,0.6613,0.6613,0.6322,0.6516,0,0
20130605,0.6419,0.6516,0.6419,0.6516,0,0
20130606,0.6419,0.6419,0.6419,0.6419,0,0
20130607,0.6419,0.6419,0.6127,0.6322,0,0
20130610,0.6224,0.6711,0.6224,0.6711,0,0
20130611,0.6419,0.6711,0.6419,0.6613,0,0
20130612,0.6613,0.6613,0.6322,0.6419,0,0
20130613,0.6224,0.6613,0.6224,0.6613,0,0
20130614,0.6516,0.6711,0.6516,0.6711,0,0
20130617,0.6711,0.6711,0.6516,0.6711,0,0
20130618,0.6808,0.6905,0.6613,0.6905,0,0
20130619,0.6905,0.7197,0.6905,0.7197,0,0
20130620,0.7294,0.7294,0.6613,0.71,0,0
20130621,0.6516,0.71,0.6516,0.71,0,0
20130624,0.6516,0.6613,0.6516,0.6613,0,0
20130625,0.6516,0.6613,0.6516,0.6613,0,0
20130626,0.6516,0.6516,0.6516,0.6516,0,0
20130627,0.6613,0.6711,0.6224,0.6322,0,0
20130628,0.6322,0.6322,0.5738,0.6322,0,0
20130701,0.6322,0.6322,0.603,0.603,0,0
20130702,0.603,0.6224,0.603,0.6224,0,0
20130703,0.6127,0.6419,0.6127,0.6419,0,0
20130704,0.6419,0.6516,0.6224,0.6322,0,0
20130705,0.6322,0.6322,0.6224,0.6224,0,0
20130708,0.6224,0.6224,0.6127,0.6224,0,0
20130709,0.6322,0.6322,0.6224,0.6224,0,0
20130710,0.6224,0.6224,0.6127,0.6224,0,0
20130711,0.6224,0.6224,0.6127,0.6224,0,0
20130712,0.6224,0.6224,0.603,0.6127,0,0
20130715,0.6127,0.6224,0.6127,0.6224,0,0
20130716,0.6322,0.6322,0.6127,0.6322,0,0
20130717,0.6322,0.6322,0.6224,0.6322,0,0
20130718,0.6224,0.6224,0.6224,0.6224,0,0
20130722,0.6127,0.6127,0.5933,0.5933,0,0
20130723,0.5933,0.5933,0.5933,0.5933,0,0
20130724,0.603,0.6224,0.603,0.603,0,0
20130725,0.6224,0.6322,0.6224,0.6322,0,0
20130726,0.6322,0.6322,0.6224,0.6322,0,0
20130729,0.6322,0.6322,0.6322,0.6322,0,0
20130730,0.6322,0.6322,0.6224,0.6224,0,0
20130731,0.6224,0.6224,0.6127,0.6127,0,0
20130801,0.6224,0.6224,0.603,0.603,0,0
20130802,0.603,0.6224,0.603,0.6224,0,0
20130805,0.6224,0.6224,0.6224,0.6224,0,0
20130806,0.6224,0.6322,0.6224,0.6322,0,0
20130807,0.6322,0.6613,0.6322,0.6613,0,0
20130808,0.71,0.71,0.6905,0.7002,0,0
20130809,0.7002,0.7002,0.6516,0.6905,0,0
20130812,0.7002,0.7002,0.6711,0.6711,0,0
20130813,0.6711,0.6711,0.6613,0.6613,0,0
20130814,0.6613,0.71,0.6613,0.71,0,0
20130816,0.7197,0.7197,0.6905,0.6905,0,0
20130819,0.6905,0.7197,0.6905,0.7197,0,0
20130820,0.7294,0.7391,0.7197,0.7294,0,0
20130821,0.7294,0.7294,0.71,0.71,0,0
20130822,0.7294,0.7294,0.71,0.7197,0,0
20130823,0.7197,0.7294,0.7197,0.7197,0,0
20130826,0.7197,0.7489,0.7197,0.7391,0,0
20130827,0.7489,0.7489,0.7391,0.7391,0,0
20130828,0.7391,0.7391,0.7391,0.7391,0,0
20130829,0.7391,0.7391,0.7294,0.7294,0,0
20130830,0.7391,0.7391,0.6613,0.7294,0,0
20130902,0.7002,0.7002,0.7002,0.7002,0,0
20130903,0.71,0.7391,0.71,0.7391,0,0
20130904,0.7391,0.7489,0.7294,0.7489,0,0
20130905,0.7489,0.7489,0.7197,0.7391,0,0
20130906,0.7294,0.7391,0.7294,0.7391,0,0
20130909,0.7294,0.7391,0.7294,0.7391,0,0
20130910,0.7391,0.778,0.7197,0.778,0,0
20130911,0.7878,0.8072,0.7878,0.8072,0,0
20130912,0.8072,0.8072,0.8072,0.8072,0,0
20130913,0.8461,0.9239,0.8461,0.9045,0,0
20130916,0.9823,0.9823,0.9337,0.9726,0,0
20130917,0.9726,1.0309,0.9628,1.0212,0,0
20130918,1.0212,1.0212,0.9823,0.992,0,0
20130919,0.992,1.0406,0.9726,1.0115,0,0
20130920,1.0212,1.0212,1.0115,1.0115,0,0
20130923,1.0017,1.0017,0.9628,0.9628,0,0
20130924,0.9628,0.9628,0.9434,0.9434,0,0
20130925,0.9434,0.9628,0.9337,0.9531,0,0
20130926,0.9531,0.9531,0.9337,0.9531,0,0
20130927,0.9628,0.9628,0.9337,0.9337,0,0
20130930,0.9337,0.9434,0.885,0.9434,0,0
20131001,0.9337,0.9337,0.9142,0.9337,0,0
20131002,0.9337,0.9337,0.9045,0.9142,0,0
20131003,0.9142,0.9434,0.9142,0.9337,0,0
20131004,0.9337,0.9531,0.9142,0.9531,0,0
20131007,0.9531,0.9531,0.9142,0.9337,0,0
20131008,0.9239,0.9337,0.9239,0.9239,0,0
20131009,0.9142,0.9239,0.9142,0.9142,0,0
20131010,0.9142,0.9628,0.885,0.9628,0,0
20131011,0.9628,0.9628,0.9434,0.9628,0,0
20131014,0.9628,0.9628,0.9531,0.9628,0,0
20131015,0.9628,0.9628,0.9434,0.9531,0,0
20131016,0.9434,0.9531,0.9434,0.9531,0,0
20131017,0.9531,0.9531,0.9434,0.9434,0,0
20131018,0.9434,0.9531,0.9337,0.9531,0,0
20131021,0.9434,0.9628,0.9337,0.9628,0,0
20131022,0.9628,1.0017,0.9531,0.992,0,0
20131023,0.9823,1.0017,0.9823,0.992,0,0
20131024,1.0115,1.0115,0.992,1.0115,0,0
20131025,1.0115,1.0212,1.0017,1.0115,0,0
20131028,1.0017,1.0504,1.0017,1.0504,0,0
20131029,1.0504,1.0601,1.0406,1.0504,0,0
20131030,1.0601,1.0795,1.0601,1.0601,0,0
20131031,1.0406,1.0504,1.0406,1.0504,0,0
20131104,1.0601,1.0698,1.0504,1.0601,0,0
20131105,1.0601,1.0601,1.0601,1.0601,0,0
20131106,1.0504,1.0601,1.0309,1.0601,0,0
20131107,1.0601,1.0698,1.0504,1.0698,0,0
20131108,1.0698,1.0698,1.0309,1.0309,0,0
20131112,1.0309,1.0504,1.0017,1.0504,0,0
20131113,1.0504,1.0504,1.0504,1.0504,0,0
20131114,1.0504,1.0601,1.0406,1.0504,0,0
20131115,1.0601,1.1282,1.0504,1.1087,0,0
20131118,1.1282,1.1282,1.1087,1.1087,0,0
20131119,1.099,1.1768,1.099,1.1768,0,0
20131120,1.1768,1.1768,1.1282,1.1671,0,0
20131121,1.1573,1.1573,1.1379,1.1573,0,0
20131122,1.1573,1.1768,1.1573,1.1671,0,0
20131125,1.1671,1.1768,1.1671,1.1671,0,0
20131126,1.1671,1.1768,1.1087,1.1379,0,0
20131127,1.1087,1.1379,1.099,1.099,0,0
20131128,1.099,1.1282,1.0698,1.0893,0,0
20131129,1.0893,1.0893,1.0601,1.0893,0,0
20131202,1.099,1.1087,1.0893,1.0893,0,0
20131203,1.0893,1.0893,1.0795,1.0893,0,0
20131204,1.0698,1.0698,1.0504,1.0698,0,0
20131205,1.0698,1.0893,1.0698,1.0795,0,0
20131206,1.0601,1.0601,0.9628,1.0601,0,0
20131209,1.0601,1.0698,1.0504,1.0698,0,0
20131210,1.0698,1.0698,1.0504,1.0698,0,0
20131211,1.0698,1.0893,1.0504,1.0795,0,0
20131212,1.0893,1.0893,1.0504,1.0698,0,0
20131213,1.0601,1.0795,1.0504,1.0795,0,0
20131216,1.0795,1.0795,1.0504,1.0601,0,0
20131217,1.0601,1.0601,1.0212,1.0212,0,0
20131218,1.0309,1.0406,1.0017,1.0406,0,0
20131219,1.0309,1.0406,1.0309,1.0406,0,0
20131220,1.0406,1.0406,0.9726,1.0309,0,0
20131223,1.0504,1.0504,1.0309,1.0406,0,0
20131227,1.0406,1.0406,1.0406,1.0406,0,0
20131230,1.0309,1.0504,1.0212,1.0309,0,0
20140102,1.0504,1.0504,1.0406,1.0504,0,0
20140103,1.0504,1.0504,1.0504,1.0504,0,0
20140107,1.0504,1.0504,1.0212,1.0309,0,0
20140108,1.0309,1.0504,1.0309,1.0504,0,0
20140109,1.0406,1.0406,1.0406,1.0406,0,0
20140110,1.0406,1.099,1.0309,1.0406,0,0
20140113,1.0504,1.0893,1.0504,1.0893,0,0
20140114,1.0601,1.0795,1.0601,1.0795,0,0
20140115,1.0795,1.0893,1.0601,1.0601,0,0
20140116,1.0698,1.0698,1.0601,1.0601,0,0
20140117,1.0698,1.0698,1.0601,1.0601,0,0
20140120,1.0601,1.0698,1.0601,1.0601,0,0
20140121,1.0601,1.099,1.0601,1.0893,0,0
20140122,1.099,1.1184,1.0893,1.099,0,0
20140123,1.1087,1.1379,1.099,1.1379,0,0
20140124,1.1379,1.1476,1.1379,1.1476,0,0
20140127,1.1282,1.1476,1.1184,1.1476,0,0
20140128,1.1379,1.1962,1.1282,1.1865,0,0
20140129,1.2254,1.2351,1.206,1.2254,0,0
20140130,1.2157,1.313,1.206,1.2935,0,0
20140131,1.313,1.313,1.2838,1.2935,0,0
20140203,1.2935,1.3324,1.2935,1.313,0,0
20140204,1.313,1.313,1.3032,1.3032,0,0
20140205,1.274,1.274,1.2449,1.2643,0,0
20140206,1.2643,1.2643,1.2157,1.2157,0,0
20140207,1.2351,1.2351,1.206,1.2157,0,0
20140210,1.2157,1.2351,1.206,1.206,0,0
20140211,1.206,1.2351,1.1768,1.1962,0,0
20140212,1.1962,1.2546,1.1962,1.2449,0,0
20140213,1.2546,1.2546,1.2351,1.2546,0,0
20140214,1.2546,1.2546,1.2254,1.2351,0,0
20140217,1.2254,1.2254,1.206,1.2254,0,0
20140218,1.206,1.2351,1.1962,1.2157,0,0
20140219,1.2254,1.2254,1.1962,1.2157,0,0
20140220,1.2157,1.2254,1.2157,1.2157,0,0
20140221,1.1962,1.2254,1.1962,1.2254,0,0
20140224,1.206,1.2254,1.206,1.2157,0,0
20140225,1.2157,1.2157,1.1865,1.1962,0,0
20140226,1.1962,1.1962,1.1573,1.1573,0,0
20140227,1.1573,1.1573,1.1087,1.1282,0,0
20140228,1.1087,1.1573,1.1087,1.1573,0,0
20140303,1.1184,1.1184,1.0406,1.0601,0,0
20140304,1.0601,1.0893,1.0601,1.0893,0,0
20140305,1.099,1.1282,1.0893,1.1282,0,0
20140306,1.1184,1.1282,1.099,1.099,0,0
20140307,1.099,1.099,1.0795,1.0795,0,0
20140310,1.0601,1.0795,1.0309,1.0504,0,0
20140311,1.0504,1.0795,1.0406,1.0795,0,0
20140312,1.0698,1.0698,1.0504,1.0504,0,0
20140313,1.0504,1.0601,1.0406,1.0601,0,0
20140314,1.0601,1.0601,1.0115,1.0115,0,0
20140317,1.0115,1.0309,1.0115,1.0309,0,0
20140318,1.0309,1.0406,1.0309,1.0406,0,0
20140319,1.0406,1.1282,1.0406,1.1282,0,0
20140320,1.1379,1.1573,1.1087,1.1476,0,0
20140321,1.1573,1.1573,1.1379,1.1476,0,0
20140324,1.1476,1.1476,1.0893,1.1087,0,0
20140325,1.099,1.1184,1.0893,1.0893,0,0
20140326,1.0893,1.0893,1.0698,1.0795,0,0
20140327,1.0795,1.0795,1.0601,1.0601,0,0
20140328,1.0601,1.0601,1.0212,1.0309,0,0
20140331,1.0212,1.0795,1.0212,1.0795,0,0
20140401,1.0795,1.0795,1.0212,1.0309,0,0
20140402,1.0309,1.0309,1.0017,1.0115,0,0
20140403,1.0017,1.0309,1.0017,1.0309,0,0
20140404,1.0115,1.0309,1.0115,1.0309,0,0
20140407,1.0115,1.0115,1.0017,1.0017,0,0
20140408,1.0115,1.0115,1.0017,1.0017,0,0
20140409,1.0017,1.0115,1.0017,1.0017,0,0
20140410,1.0115,1.0115,1.0017,1.0017,0,0
20140411,1.0017,1.0017,0.992,1.0017,0,0
20140414,0.992,0.992,0.9823,0.9823,0,0
20140415,0.9434,0.9628,0.9337,0.9337,0,0
20140416,0.9337,0.9337,0.9045,0.9239,0,0
20140417,0.9337,0.9337,0.9142,0.9142,0,0
20140422,0.9142,0.9531,0.9142,0.9531,0,0
20140423,0.9531,0.9628,0.9337,0.9337,0,0
20140424,0.9337,0.9434,0.9142,0.9142,0,0
20140425,0.9142,0.9239,0.9142,0.9142,0,0
20140428,0.9239,0.9239,0.9239,0.9239,0,0
20140429,0.9337,0.9337,0.9337,0.9337,0,0
20140430,0.9337,0.9337,0.9239,0.9239,0,0
20140502,0.9337,0.9337,0.9239,0.9239,0,0
20140505,0.9337,0.9337,0.9045,0.9045,0,0
20140506,0.9045,0.9045,0.8948,0.9045,0,0
20140507,0.9045,0.9045,0.8461,0.8753,0,0
20140508,0.8753,0.8753,0.8656,0.8656,0,0
20140509,0.8558,0.8558,0.8267,0.8267,0,0
20140512,0.8169,0.8267,0.8072,0.8267,0,0
20140513,0.8169,0.8267,0.8169,0.8169,0,0
20140514,0.8267,0.8364,0.8169,0.8169,0,0
20140515,0.8461,0.8753,0.8461,0.8558,0,0
20140516,0.8461,0.8656,0.8461,0.8558,0,0
20140519,0.8558,0.8558,0.8364,0.8364,0,0
20140520,0.8364,0.8461,0.8267,0.8461,0,0
20140521,0.8267,0.8461,0.8169,0.8461,0,0
20140522,0.8461,0.8558,0.8267,0.8558,0,0
20140523,0.8558,0.8558,0.8364,0.8461,0,0
20140526,0.8558,0.8558,0.8461,0.8461,0,0
20140527,0.8461,0.8558,0.8461,0.8461,0,0
20140528,0.8461,0.8656,0.8461,0.8461,0,0
20140529,0.8461,0.8558,0.8461,0.8461,0,0
20140530,0.8558,0.8558,0.8558,0.8558,0,0
20140602,0.8656,0.8656,0.8558,0.8558,0,0
20140603,0.8656,0.8656,0.8364,0.8558,0,0
20140604,0.8558,0.8656,0.8558,0.8656,0,0
20140605,0.8558,0.8753,0.8558,0.8656,0,0
20140606,0.8753,0.8753,0.8656,0.8753,0,0
20140609,0.8753,0.8753,0.8656,0.8656,0,0
20140610,0.8753,0.8753,0.8753,0.8753,0,0
20140611,0.8753,0.8753,0.8656,0.8656,0,0
20140612,0.8656,0.8656,0.8656,0.8656,0,0
20140613,0.8461,0.8558,0.8461,0.8558,0,0
20140616,0.8461,0.8461,0.8461,0.8461,0,0
20140617,0.8461,0.8461,0.8461,0.8461,0,0
20140618,0.8461,0.8461,0.8461,0.8461,0,0
20140620,0.8461,0.8461,0.8364,0.8461,0,0
20140623,0.8364,0.8656,0.8364,0.8461,0,0
20140624,0.8753,0.8753,0.8558,0.8558,0,0
20140625,0.8558,0.8558,0.8169,0.8558,0,0
20140626,0.95,0.95,0.88,0.9,0,0
20140627,0.9,0.9,0.89,0.89,0,0
20140630,0.88,0.88,0.86,0.88,0,0
20140701,0.86,0.86,0.85,0.85,0,0
20140703,0.84,0.85,0.83,0.85,0,0
20140704,0.85,0.85,0.83,0.83,0,0
20140707,0.83,0.83,0.8,0.82,0,0
20140708,0.83,0.83,0.81,0.82,0,0
20140710,0.81,0.81,0.79,0.8,0,0
20140711,0.78,0.81,0.78,0.81,0,0
20140714,0.79,0.82,0.79,0.81,0,0
20140715,0.81,0.81,0.79,0.8,0,0
20140716,0.8,0.81,0.79,0.81,0,0
20140717,0.78,0.81,0.78,0.81,0,0
20140718,0.81,0.82,0.79,0.82,0,0
20140721,0.82,0.82,0.8,0.81,0,0
20140722,0.8,0.81,0.78,0.81,0,0
20140723,0.8,0.8,0.79,0.79,0,0
20140724,0.78,0.79,0.78,0.78,0,0
20140725,0.78,0.78,0.77,0.77,0,0
20140728,0.77,0.78,0.77,0.77,0,0
20140729,0.77,0.79,0.76,0.79,0,0
20140730,0.79,0.79,0.79,0.79,0,0
20140731,0.78,0.78,0.78,0.78,0,0
20140801,0.77,0.78,0.76,0.77,0,0
20140804,0.77,0.77,0.77,0.77,0,0
20140805,0.78,0.79,0.75,0.75,0,0
20140806,0.75,0.75,0.73,0.73,0,0
20140807,0.73,0.73,0.71,0.71,0,0
20140808,0.71,0.71,0.69,0.69,0,0
20140811,0.73,0.73,0.7,0.7,0,0
20140812,0.71,0.71,0.71,0.71,0,0
20140813,0.7,0.71,0.7,0.71,0,0
20140814,0.69,0.7,0.68,0.7,0,0
20140818,0.7,0.7,0.7,0.7,0,0
20140819,0.7,0.7,0.7,0.7,0,0
20140820,0.7,0.71,0.7,0.71,0,0
20140821,0.71,0.75,0.71,0.75,0,0
20140822,0.75,0.78,0.74,0.74,0,0
20140825,0.76,0.79,0.76,0.77,0,0
20140826,0.78,0.83,0.78,0.79,0,0
20140827,0.8,0.83,0.8,0.83,0,0
20140828,0.83,0.83,0.77,0.79,0,0
20140829,0.79,0.79,0.77,0.79,0,0
20140901,0.79,0.79,0.77,0.77,0,0
20140902,0.77,0.77,0.77,0.77,0,0
20140903,0.77,0.79,0.77,0.78,0,0
20140904,0.79,0.8,0.79,0.79,0,0
20140905,0.79,0.79,0.76,0.77,0,0
20140908,0.76,0.79,0.76,0.79,0,0
20140909,0.79,0.81,0.78,0.81,0,0
20140910,0.81,0.84,0.81,0.83,0,0
20140911,0.83,0.83,0.77,0.78,0,0
20140912,0.79,0.8,0.78,0.78,0,0
20140915,0.79,0.8,0.79,0.8,0,0
20140916,0.8,0.83,0.8,0.81,0,0
20140917,0.82,0.82,0.81,0.81,0,0
20140918,0.8,0.81,0.8,0.81,0,0
20140919,0.82,0.82,0.81,0.82,0,0
20140922,0.82,0.82,0.82,0.82,0,0
20140923,0.81,0.81,0.77,0.79,0,0
20140924,0.79,0.79,0.77,0.77,0,0
20140925,0.77,0.8,0.77,0.8,0,0
20140929,0.79,0.79,0.79,0.79,0,0
20140930,0.79,0.8,0.78,0.8,0,0
20141001,0.79,0.79,0.78,0.78,0,0
20141002,0.77,0.78,0.77,0.77,0,0
20141003,0.77,0.79,0.77,0.79,0,0
20141006,0.79,0.79,0.78,0.78,0,0
20141007,0.78,0.78,0.78,0.78,0,0
20141008,0.78,0.78,0.78,0.78,0,0
20141009,0.78,0.78,0.76,0.76,0,0
20141010,0.76,0.76,0.72,0.72,0,0
20141013,0.72,0.73,0.72,0.73,0,0
20141014,0.73,0.73,0.72,0.72,0,0
20141015,0.73,0.73,0.71,0.71,0,0
20141016,0.72,0.72,0.69,0.69,0,0
20141017,0.7,0.72,0.69,0.72,0,0
20141020,0.72,0.72,0.71,0.71,0,0
20141021,0.71,0.72,0.71,0.72,0,0
20141022,0.71,0.72,0.71,0.72,0,0
20141023,0.72,0.72,0.71,0.71,0,0
20141024,0.72,0.75,0.72,0.73,0,0
20141027,0.73,0.74,0.73,0.74,0,0
20141028,0.73,0.76,0.73,0.76,0,0
20141029,0.77,0.77,0.75,0.75,0,0
20141030,0.77,0.77,0.75,0.76,0,0
20141031,0.76,0.76,0.75,0.75,0,0
20141103,0.75,0.75,0.74,0.74,0,0
20141104,0.74,0.75,0.74,0.74,0,0
20141105,0.75,0.75,0.75,0.75,0,0
20141106,0.74,0.76,0.74,0.74,0,0
20141107,0.75,0.75,0.73,0.73,0,0
20141110,0.72,0.72,0.72,0.72,0,0
20141112,0.72,0.74,0.72,0.74,0,0
20141113,0.73,0.73,0.73,0.73,0,0
20141114,0.73,0.73,0.72,0.72,0,0
20141117,0.72,0.72,0.71,0.71,0,0
20141118,0.71,0.71,0.71,0.71,0,0
20141119,0.71,0.71,0.69,0.69,0,0
20141120,0.69,0.69,0.66,0.66,0,0
20141121,0.68,0.68,0.65,0.65,0,0
20141124,0.65,0.65,0.63,0.63,0,0
20141125,0.64,0.64,0.6,0.6,0,0
20141126,0.61,0.63,0.61,0.62,0,0
20141127,0.62,0.63,0.62,0.63,0,0
20141128,0.63,0.63,0.62,0.63,0,0
20141201,0.62,0.63,0.62,0.63,0,0
20141202,0.63,0.65,0.63,0.64,0,0
20141203,0.66,0.68,0.66,0.68,0,0
20141204,0.7,0.7,0.69,0.69,0,0
20141205,0.69,0.71,0.66,0.68,0,0
20141208,0.66,0.66,0.62,0.66,0,0
20141209,0.65,0.65,0.65,0.65,0,0
20141210,0.64,0.64,0.61,0.64,0,0
20141211,0.62,0.63,0.62,0.63,0,0
20141212,0.62,0.63,0.62,0.63,0,0
20141215,0.64,0.64,0.64,0.64,0,0
20141216,0.63,0.63,0.61,0.61,0,0
20141217,0.61,0.61,0.6,0.6,0,0
20141218,0.6,0.62,0.6,0.6,0,0
20141219,0.62,0.62,0.61,0.61,0,0
20141222,0.61,0.61,0.58,0.6,0,0
20141223,0.6,0.6,0.56,0.59,0,0
20141229,0.58,0.6,0.58,0.59,0,0
20141230,0.6,0.61,0.6,0.61,0,0
