Date,Open,High,Low,Close,Volume,OpenInt
20090107,64.043,64.043,64.043,64.043,0,0
20090108,61.845,62.817,61.845,62.817,0,0
20090112,62.37,66.844,62.37,63.08,0,0
20090113,61.582,66.581,61.582,66.581,0,0
20090114,66.581,68.341,63.605,67.466,0,0
20090115,64.918,67.466,64.918,64.918,0,0
20090116,63.343,66.494,63.343,64.043,0,0
20090119,67.904,67.904,67.904,67.904,0,0
20090120,63.167,65.268,61.932,65.268,0,0
20090121,65.356,65.356,62.72,62.72,0,0
20090122,62.282,64.043,62.282,64.043,0,0
20090123,65.181,65.181,61.495,64.918,0,0
20090126,65.181,65.181,60.357,61.232,0,0
20090127,61.232,61.232,59.919,60.882,0,0
20090128,61.232,61.232,60.882,61.232,0,0
20090129,60.532,60.532,60.532,60.532,0,0
20090130,59.832,59.832,59.131,59.657,0,0
20090202,60.532,60.532,51.847,55.183,0,0
20090203,55.27,55.27,52.635,52.635,0,0
20090204,52.635,52.635,50.009,51.059,0,0
20090205,47.373,51.759,44.738,50.359,0,0
20090206,50.359,60.444,50.359,53.773,0,0
20090209,50.884,54.132,50.884,54.132,0,0
20090210,55.445,57.284,52.635,57.284,0,0
20090211,58.606,60.444,57.021,57.371,0,0
20090212,58.781,58.781,58.781,58.781,0,0
20090213,58.781,59.394,58.781,59.394,0,0
20090216,57.896,58.781,52.635,52.635,0,0
20090217,50.884,50.884,47.548,47.548,0,0
20090218,46.41,46.41,45.448,46.323,0,0
20090219,47.461,47.461,47.286,47.286,0,0
20090220,47.286,47.286,47.286,47.286,0,0
20090223,45.175,47.286,45.175,47.111,0,0
20090224,47.286,51.759,43.862,51.759,0,0
20090225,50.359,56.146,50.359,52.635,0,0
20090226,53.072,55.183,53.072,55.183,0,0
20090227,52.635,54.395,52.635,54.395,0,0
20090302,53.247,53.247,52.985,52.985,0,0
20090303,50.884,51.234,50.009,50.709,0,0
20090304,49.474,52.547,49.474,52.547,0,0
20090305,52.897,54.833,51.759,54.833,0,0
20090306,53.51,54.833,50.009,54.833,0,0
20090309,51.759,51.759,51.759,51.759,0,0
20090310,51.847,51.847,51.847,51.847,0,0
20090311,51.847,52.635,51.847,52.635,0,0
20090312,51.847,52.635,51.847,52.635,0,0
20090313,51.759,59.569,51.759,59.569,0,0
20090316,53.685,57.459,53.685,56.146,0,0
20090317,59.569,59.569,57.896,57.896,0,0
20090318,59.569,59.569,58.956,59.219,0,0
20090319,59.044,60.532,59.044,60.532,0,0
20090320,61.232,61.232,61.232,61.232,0,0
20090323,61.845,64.918,60.97,64.918,0,0
20090324,65.181,65.531,64.918,64.918,0,0
20090325,65.793,65.793,64.48,64.48,0,0
20090326,67.554,67.554,67.554,67.554,0,0
20090327,67.554,67.554,66.669,66.669,0,0
20090330,66.669,66.669,66.669,66.669,0,0
20090331,66.669,66.669,66.669,66.669,0,0
20090401,66.669,66.669,63.167,63.167,0,0
20090402,64.043,67.554,63.167,67.554,0,0
20090403,66.669,67.554,66.669,67.554,0,0
20090406,67.554,67.991,67.554,67.816,0,0
20090407,68.429,69.129,68.254,68.429,0,0
20090408,68.429,69.304,67.904,69.304,0,0
20090409,69.742,72.815,69.742,72.815,0,0
20090414,72.815,72.815,69.742,69.742,0,0
20090415,69.304,70.092,69.304,70.092,0,0
20090416,68.692,72.815,68.692,72.728,0,0
20090417,70.967,72.815,70.967,72.815,0,0
20090420,72.378,72.378,68.429,68.867,0,0
20090421,68.954,71.055,68.867,69.304,0,0
20090422,69.304,75.003,69.304,75.003,0,0
20090423,75.441,79.827,75.441,79.477,0,0
20090424,80.625,82.288,79.477,82.025,0,0
20090427,82.463,82.463,75.441,79.39,0,0
20090428,82.813,107.91,82.813,100.88,0,0
20090429,112.99,112.99,100.88,105.01,0,0
20090430,105.18,105.18,101.32,103.52,0,0
20090504,105.18,105.18,101.77,103.52,0,0
20090505,105.36,106.94,105.27,105.27,0,0
20090506,105.27,105.27,104.83,104.83,0,0
20090507,104.92,104.92,100.88,103.52,0,0
20090508,100.97,102.47,100.97,102.12,0,0
20090511,103.43,106.15,103.43,106.15,0,0
20090512,106.15,108.61,105.27,105.27,0,0
20090513,105.27,105.27,100.45,100.45,0,0
20090514,100.01,100.45,100.01,100.01,0,0
20090515,100.97,100.97,97.382,97.382,0,0
20090518,99.57,103.43,99.57,100.88,0,0
20090519,103.52,103.52,103.52,103.52,0,0
20090520,105.27,105.27,105.18,105.27,0,0
20090521,102.64,106.07,100.97,105.97,0,0
20090522,105.97,106.15,103.96,106.15,0,0
20090525,107.38,107.38,105.27,106.15,0,0
20090526,104.04,107.03,104.04,106.94,0,0
20090527,107.2,107.2,105.44,105.44,0,0
20090528,105.27,105.53,105.27,105.53,0,0
20090529,106.33,106.59,105.79,106.59,0,0
20090601,106.59,110.8,106.15,109.66,0,0
20090602,112.03,112.64,109.66,109.66,0,0
20090603,110.01,112.47,109.66,110.18,0,0
20090604,110.98,112.73,110.18,112.73,0,0
20090605,113.34,113.69,113.17,113.17,0,0
20090608,113.17,114.04,112.29,114.04,0,0
20090609,114.04,122.38,114.04,122.38,0,0
20090610,122.81,127.2,122.81,127.03,0,0
20090612,119.49,129.84,119.49,129.84,0,0
20090615,122.9,125.45,121.06,125.45,0,0
20090616,125.45,125.45,121.06,125.45,0,0
20090617,128,128,121.94,126.76,0,0
20090618,126.41,126.41,121.85,121.85,0,0
20090619,119.31,119.31,113.17,115.28,0,0
20090622,117.99,117.99,117.55,117.55,0,0
20090623,109.66,116.68,109.66,114.04,0,0
20090624,113.17,113.17,109.66,112.29,0,0
20090625,112.29,114.93,112.29,112.29,0,0
20090626,114.84,114.84,113.17,114.66,0,0
20090629,114.84,114.84,111.85,111.85,0,0
20090630,112.29,130.36,110.63,127.2,0,0
20090701,122.81,129.75,122.81,129.75,0,0
20090702,129.75,129.75,128.09,128.87,0,0
20090703,128.96,128.96,122.81,125.98,0,0
20090706,122.81,127.11,121.15,127.11,0,0
20090707,122.81,128,121.06,124.31,0,0
20090708,122.81,122.81,120.19,120.19,0,0
20090709,122.81,125.89,120.19,124.57,0,0
20090710,124.49,124.57,122.03,122.81,0,0
20090713,127.03,127.03,124.57,124.57,0,0
20090714,123.25,123.25,123.25,123.25,0,0
20090715,122.81,122.81,118.43,122.81,0,0
20090716,118.52,126.24,118.52,126.24,0,0
20090717,123.25,123.35,123.25,123.35,0,0
20090720,126.24,126.24,123.7,125.89,0,0
20090721,125.89,130.71,125.89,128.09,0,0
20090722,130.27,130.71,130.27,130.27,0,0
20090723,130.36,130.36,127.2,130.27,0,0
20090724,130.36,130.36,130.36,130.36,0,0
20090727,130.36,130.36,125.01,129.4,0,0
20090728,129.4,129.4,125.45,129.31,0,0
20090729,123.35,129.31,123.35,129.31,0,0
20090730,129.31,129.31,123.96,129.22,0,0
20090731,127.2,127.2,125.01,125.01,0,0
20090803,126.33,126.33,122.38,122.38,0,0
20090804,122.81,127.2,122.38,123.7,0,0
20090805,123.52,124.57,123.52,124.57,0,0
20090806,124.57,127.2,124.57,127.2,0,0
20090807,125.1,127.2,125.1,127.2,0,0
20090810,128.52,129.22,127.2,129.22,0,0
20090811,126.33,135.97,126.33,135.97,0,0
20090812,135.1,135.97,129.84,135.1,0,0
20090813,135.01,135.01,131.94,131.94,0,0
20090814,135.01,135.01,131.59,132.03,0,0
20090817,131.67,135.54,129.4,135.54,0,0
20090818,135.54,135.97,129.49,135.97,0,0
20090819,134.66,135.97,134.66,135.97,0,0
20090820,139.48,147.38,136.86,147.38,0,0
20090821,152.91,154.05,152.91,154.05,0,0
20090824,154.4,154.4,146.07,146.59,0,0
20090825,149.58,161.24,149.58,161.24,0,0
20090826,165.8,176.25,161.24,171.07,0,0
20090827,171.07,171.07,161.15,161.15,0,0
20090828,166.69,175.37,161.42,175.37,0,0
20090831,175.37,175.37,164.93,171.07,0,0
20090901,171.07,176.16,167.12,171.07,0,0
20090902,167.56,171.07,157.91,160.1,0,0
20090903,160.1,160.1,157.03,157.91,0,0
20090904,158.79,158.79,157.91,157.91,0,0
20090907,154.4,154.4,153.52,153.62,0,0
20090908,154.49,161.42,154.49,161.42,0,0
20090909,165.8,165.8,161.42,161.42,0,0
20090910,171.07,171.07,153.88,154.4,0,0
20090911,154.4,155.98,151.15,151.15,0,0
20090914,157.47,157.47,150.98,150.98,0,0
20090915,150.98,156.42,150.98,156.42,0,0
20090916,157.91,159.49,156.42,156.42,0,0
20090917,157.91,158.79,156.42,158.79,0,0
20090918,153.52,155.28,153.52,155.28,0,0
20090921,157.91,157.91,155.28,157.91,0,0
20090922,157.03,157.91,157.03,157.91,0,0
20090923,154.4,154.4,154.4,154.4,0,0
20090924,153.08,157.03,151.33,157.03,0,0
20090925,154.4,154.4,151.77,151.77,0,0
20090928,148.26,151.77,146.07,147.38,0,0
20090929,144.75,144.75,144.75,144.75,0,0
20090930,144.75,145.87,144.75,145.87,0,0
20091001,142.33,145.87,141.54,141.62,0,0
20091002,141.36,141.62,141.27,141.62,0,0
20091005,141.62,141.62,141.62,141.62,0,0
20091006,142.77,149.4,142.77,149.4,0,0
20091007,150.29,154.27,150.29,151.17,0,0
20091008,152.94,152.94,151.17,151.17,0,0
20091009,154.71,157.27,151.17,156.83,0,0
20091012,156.47,156.47,156.47,156.47,0,0
20091013,156.57,159.04,156.47,159.04,0,0
20091014,159.04,159.04,157.36,157.36,0,0
20091015,159.13,159.13,158.24,159.04,0,0
20091016,159.04,159.04,158.24,158.24,0,0
20091019,158.24,159.04,154.71,158.24,0,0
20091020,154.71,154.71,150.38,153.83,0,0
20091021,142.33,152.94,142.33,147.63,0,0
20091022,147.63,150.29,147.63,150.29,0,0
20091023,146.93,146.93,146.93,146.93,0,0
20091026,150.29,150.29,143.74,143.74,0,0
20091027,141.45,142.51,141.45,142.51,0,0
20091028,139.68,143.66,139.68,142.77,0,0
20091029,140.13,142.77,140.13,142.6,0,0
20091030,142.6,150.2,142.6,150.2,0,0
20091102,150.29,150.29,147.63,147.63,0,0
20091103,147.2,147.2,147.2,147.2,0,0
20091104,147.2,148.52,147.2,148.52,0,0
20091105,149.23,149.23,145.51,145.51,0,0
20091106,147.28,147.28,142.33,142.33,0,0
20091109,144.1,144.1,142.33,142.33,0,0
20091110,144.9,144.9,140.56,141.45,0,0
20091112,142.33,142.77,141.27,141.27,0,0
20091113,139.68,141.45,139.68,141.45,0,0
20091116,143.22,143.22,140.13,141.45,0,0
20091117,139.68,139.68,139.68,139.68,0,0
20091118,144.9,144.9,141.36,141.36,0,0
20091119,141.45,141.45,141.36,141.36,0,0
20091120,141.36,141.36,139.68,139.68,0,0
20091123,141.45,141.45,141.45,141.45,0,0
20091124,139.68,141.45,138.79,141.45,0,0
20091125,141.45,141.45,141.45,141.45,0,0
20091126,141.45,141.45,137.03,137.03,0,0
20091127,141.36,141.36,133.49,133.49,0,0
20091130,135.26,141.45,135.26,141.45,0,0
20091201,141.45,141.45,141.36,141.36,0,0
20091202,141.36,141.36,132.7,135.26,0,0
20091203,139.15,141.36,137.47,137.47,0,0
20091204,135.7,137.47,135.7,137.47,0,0
20091207,136.59,137.47,136.59,137.47,0,0
20091208,137.47,137.92,134.38,134.38,0,0
20091209,135.26,135.26,132.17,132.17,0,0
20091210,132.17,132.61,131.72,131.72,0,0
20091211,134.73,134.73,130.84,132.35,0,0
20091214,130.84,132.08,130.84,132.08,0,0
20091215,131.29,131.29,126.86,129.08,0,0
20091216,130.75,130.75,126.95,126.95,0,0
20091217,130.84,130.84,121.56,125.45,0,0
20091218,125.09,135.18,125.09,132.61,0,0
20091221,136.15,139.68,132.61,138.62,0,0
20091222,140.56,140.92,138.62,139.5,0,0
20091223,141.36,141.36,134.9,134.9,0,0
20091228,134.2,134.9,132.17,133.49,0,0
20091229,138.36,141.36,133.49,140.56,0,0
20091230,141.45,144.99,139.68,141.45,0,0
20091231,143.22,143.22,137.03,137.03,0,0
20100104,140.56,140.56,137.03,139.68,0,0
20100105,141.27,141.45,140.13,140.13,0,0
20100106,140.21,140.21,139.24,140.13,0,0
20100107,139.24,139.5,138.18,139.5,0,0
20100108,140.13,141.45,140.13,140.56,0,0
20100111,143.22,143.22,139.68,141.45,0,0
20100112,143.22,143.22,135.7,141.36,0,0
20100113,141.1,141.1,139.59,139.59,0,0
20100114,139.68,139.68,137.03,137.03,0,0
20100115,137.21,141.9,137.03,141.9,0,0
20100118,140.56,143.48,140.56,141.45,0,0
20100119,143.22,143.66,141.01,143.66,0,0
20100120,143.66,143.66,141.45,143.13,0,0
20100121,143.66,143.66,139.24,141.01,0,0
20100122,141.01,141.01,137.12,137.12,0,0
20100125,137.92,141.62,137.92,138.44,0,0
20100126,138.44,138.44,138.44,138.44,0,0
20100127,141.36,141.36,138.44,138.44,0,0
20100128,139.33,141.54,137.47,141.54,0,0
20100129,141.45,141.45,141.45,141.45,0,0
20100201,135.7,141.9,135.7,141.9,0,0
20100202,141.45,141.45,141.45,141.45,0,0
20100203,141.45,141.9,141.45,141.9,0,0
20100204,141.9,141.9,137.03,137.03,0,0
20100205,137.03,140.56,137.03,140.56,0,0
20100208,140.56,140.56,137.12,139.68,0,0
20100209,141.45,141.45,141.45,141.45,0,0
20100210,141.45,142.77,137.92,142.77,0,0
20100211,142.77,142.77,141.45,141.45,0,0
20100212,141.8,141.8,141.45,141.8,0,0
20100215,141.8,143.22,137.03,143.22,0,0
20100216,144.1,144.99,144.1,144.99,0,0
20100217,144.99,150.29,143.22,150.29,0,0
20100218,153.38,156.04,153.38,153.38,0,0
20100219,153.38,153.38,153.38,153.38,0,0
20100222,155.6,155.6,150.74,152.32,0,0
20100223,152.06,152.06,151.17,152.06,0,0
20100224,154.27,158.69,149.4,154.71,0,0
20100225,158.52,158.69,154.27,158.69,0,0
20100226,150.38,158.69,150.38,158.69,0,0
20100301,157.27,157.27,156.04,157.18,0,0
20100302,148.52,157.81,148.52,157.18,0,0
20100303,158.69,158.69,152.94,154.71,0,0
20100304,152.94,160.45,152.94,159.13,0,0
20100305,161.7,161.7,159.13,159.13,0,0
20100308,159.13,164.44,153.38,164.44,0,0
20100309,160.99,167.97,160.9,167.97,0,0
20100310,167.53,167.53,166.2,167.53,0,0
20100311,167.53,170.63,167.09,169.3,0,0
20100312,169.3,169.3,167.97,169.3,0,0
20100315,169.3,169.3,167.97,167.97,0,0
20100316,170.45,170.45,170.45,170.45,0,0
20100317,171.86,173.54,171.06,171.06,0,0
20100318,175.04,175.04,169.83,170.63,0,0
20100319,166.2,167.53,166.2,167.09,0,0
20100322,167.09,167.09,160.45,160.45,0,0
20100323,160.45,160.45,152.06,152.06,0,0
20100324,152.06,152.06,147.2,149.4,0,0
20100325,151.61,151.61,151.52,151.52,0,0
20100326,152.94,156.83,152.94,153.38,0,0
20100329,152.06,167.53,152.06,160.45,0,0
20100330,166.65,169.65,162.76,167.53,0,0
20100331,167.53,169.65,167.09,167.53,0,0
20100401,167.97,169.65,165.32,169.65,0,0
20100406,163.99,168.86,163.99,167.97,0,0
20100407,163.55,168.51,163.55,167.97,0,0
20100408,169.12,169.12,166.2,167.97,0,0
20100409,167.97,167.97,167.97,167.97,0,0
20100412,168.42,168.42,163.11,163.11,0,0
20100413,159.13,161.34,156.47,161.16,0,0
20100414,157.36,164.88,157.36,164.7,0,0
20100415,167.97,167.97,160.01,160.01,0,0
20100416,157.36,157.36,157.36,157.36,0,0
20100419,154.71,154.71,150.29,150.29,0,0
20100420,150.74,154.71,150.74,154.71,0,0
20100421,151.61,155.6,149.85,150.29,0,0
20100422,149.49,151.17,149.49,151.17,0,0
20100423,151.17,159.13,151.17,159.13,0,0
20100426,159.13,159.13,154.27,157.36,0,0
20100427,155.6,155.6,150.38,153.83,0,0
20100428,148.52,149.05,148.08,148.08,0,0
20100429,159.13,159.13,144.1,146.66,0,0
20100430,146.76,147.2,144.1,144.1,0,0
20100504,144.54,144.54,141.45,141.45,0,0
20100505,142.25,147.63,142.25,144.1,0,0
20100506,144.1,147.63,144.1,147.63,0,0
20100507,144.1,144.1,142.87,143.22,0,0
20100510,147.63,149.85,144.1,144.1,0,0
20100511,144.1,145.87,144.1,145.6,0,0
20100512,145.43,145.43,144.1,144.1,0,0
20100513,148.97,148.97,139.24,141.45,0,0
20100514,141.45,141.45,135.26,137.47,0,0
20100517,138.36,138.36,136.24,136.24,0,0
20100518,140.39,140.48,136.15,140.39,0,0
20100519,136.67,140.13,136.06,140.13,0,0
20100520,141.19,141.19,134.82,134.82,0,0
20100521,132.61,132.61,126.42,132.61,0,0
20100524,129.95,129.95,126.6,126.6,0,0
20100525,126.42,127.31,122.88,122.88,0,0
20100526,130.84,130.84,125.8,125.8,0,0
20100527,127.75,127.75,122,122,0,0
20100528,125.54,130.75,125.54,129.08,0,0
20100531,129.17,129.25,129.17,129.25,0,0
20100601,132.43,135.26,129.17,129.17,0,0
20100602,132.61,132.61,129.17,129.17,0,0
20100604,129.52,133.49,129.52,133.49,0,0
20100607,134.38,136.59,134.38,134.47,0,0
20100608,134.55,134.55,134.55,134.55,0,0
20100609,137.03,137.03,132.78,132.78,0,0
20100610,130.4,133.41,129.25,133.41,0,0
20100611,133.41,133.41,133.41,133.41,0,0
20100614,130.05,130.05,129.08,129.17,0,0
20100615,129.08,129.95,129.08,129.95,0,0
20100616,132.61,136.59,129.08,129.08,0,0
20100617,129.25,129.52,129.08,129.52,0,0
20100618,129.08,129.08,129.08,129.08,0,0
20100621,129.08,129.08,129.08,129.08,0,0
20100622,129.08,129.08,129.08,129.08,0,0
20100623,133.41,133.41,129.08,129.08,0,0
20100624,129.08,129.08,129.08,129.08,0,0
20100625,131.72,133.41,129.08,133.41,0,0
20100628,129.95,129.95,129.25,129.25,0,0
20100629,129.25,129.25,129.08,129.08,0,0
20100630,129.08,129.08,129.08,129.08,0,0
20100702,129.08,131.81,129.08,131.81,0,0
20100705,131.72,131.81,131.72,131.81,0,0
20100706,131.99,138.27,131.99,133.93,0,0
20100707,134.03,137.92,134.03,137.92,0,0
20100708,137.92,137.92,136.15,137.03,0,0
20100709,142.33,150.74,142.33,145.87,0,0
20100712,152.06,152.06,148.52,151.61,0,0
20100713,152.06,153.74,151.61,153.74,0,0
20100714,154.71,154.71,152.5,154.27,0,0
20100715,154.27,155.6,154.27,155.6,0,0
20100716,155.77,155.95,155.77,155.86,0,0
20100719,155.6,156.92,154.71,156.39,0,0
20100720,156.47,156.47,153.83,153.83,0,0
20100721,152.94,152.94,152.15,152.5,0,0
20100722,152.5,152.5,146.76,151.88,0,0
20100723,152.06,152.94,151.88,152.5,0,0
20100726,156.83,156.83,153.83,153.83,0,0
20100727,155.6,155.86,155.6,155.86,0,0
20100728,156.92,156.92,155.86,156.92,0,0
20100729,157.36,158.16,156.47,157.36,0,0
20100730,155.86,158.16,155.86,157.27,0,0
20100802,155.6,157.27,154.71,157.27,0,0
20100803,157.36,158.49,157.27,158.49,0,0
20100804,158.58,159.2,158.3,159.2,0,0
20100805,159.47,159.47,157.68,159.47,0,0
20100806,159.11,159.11,157.68,159.02,0,0
20100809,158.58,158.58,155.99,156.35,0,0
20100810,158.13,158.13,156.35,157.68,0,0
20100811,157.15,157.15,155.45,156.8,0,0
20100812,156.97,156.97,155.45,155.45,0,0
20100813,156.8,156.8,151.45,152.96,0,0
20100816,152.96,152.96,151.45,151.45,0,0
20100817,150.11,151.36,147.53,151.36,0,0
20100818,151.36,151.36,151.36,151.36,0,0
20100819,155.37,155.37,155.37,155.37,0,0
20100820,158.04,158.04,153.23,153.23,0,0
20100823,151.45,151.45,149.67,149.67,0,0
20100824,149.84,149.84,143.97,143.97,0,0
20100825,143.43,143.43,143.43,143.43,0,0
20100826,142.54,145.21,142.54,145.21,0,0
20100827,145.21,150.56,145.21,150.56,0,0
20100830,151.45,151.45,147.89,151.45,0,0
20100831,149.67,154.92,145.66,154.92,0,0
20100901,154.03,154.03,147.44,153.85,0,0
20100902,153.95,153.95,149.67,153.23,0,0
20100903,153.95,153.95,151.45,152.34,0,0
20100906,154.03,154.03,153.67,153.67,0,0
20100907,153.23,153.23,148.77,148.77,0,0
20100908,147.89,151.89,147.89,151.89,0,0
20100909,147.44,151,146.99,150.56,0,0
20100910,150.56,150.56,146.37,146.37,0,0
20100913,146.19,146.19,146.11,146.19,0,0
20100914,145.66,145.66,142.54,142.54,0,0
20100915,140.76,142.54,140.76,140.76,0,0
20100916,140.76,146.01,140.76,146.01,0,0
20100917,146.73,146.73,146.37,146.37,0,0
20100920,146.01,148.51,142.09,148.51,0,0
20100921,148.77,150.56,146.19,149.67,0,0
20100922,150.56,150.56,142.09,150.11,0,0
20100923,148.68,148.68,142.18,147.61,0,0
20100924,149.58,149.58,142.54,149.49,0,0
20100927,149.58,149.58,142.63,146.99,0,0
20100928,148.77,148.77,142.54,146.82,0,0
20100929,146.82,146.82,142.54,146.11,0,0
20100930,142.54,148.77,142.54,148.77,0,0
20101001,150.56,150.56,142.54,147.8,0,0
20101004,148.77,148.77,142.28,145.12,0,0
20101005,145.66,145.66,142.54,145.66,0,0
20101006,145.66,152.16,142.54,149.22,0,0
20101007,151,151,150.38,150.38,0,0
20101008,149.67,151.45,148.77,151.45,0,0
20101011,152.88,152.88,147.89,151,0,0
20101012,151.45,151.45,142.54,145.75,0,0
20101013,143.07,146.99,143.07,146.11,0,0
20101014,147.35,147.35,142.63,145.92,0,0
20101015,145.75,145.75,145.75,145.75,0,0
20101018,145.92,145.92,142.54,145.21,0,0
20101019,145.21,145.21,142.54,145.21,0,0
20101020,145.21,145.21,142.54,142.54,0,0
20101021,142.54,145.21,141.29,144.68,0,0
20101022,144.68,144.68,142.54,144.5,0,0
20101025,144.68,144.68,140.76,140.76,0,0
20101026,142.54,142.54,140.76,142.45,0,0
20101027,142.54,142.71,140.85,142.63,0,0
20101028,143.78,143.78,141.74,143.78,0,0
20101029,143.78,143.78,140.85,143.78,0,0
20101102,144.32,146.46,143.97,144.76,0,0
20101103,146.99,151.45,146.99,151.36,0,0
20101104,152.96,154.57,151.53,154.57,0,0
20101105,155.02,155.02,151.45,152.79,0,0
20101108,152.79,154.03,147.89,147.89,0,0
20101109,151.98,159.47,151.98,157.06,0,0
20101110,167.48,167.66,164.36,165.7,0,0
20101112,164.81,165.52,160.89,163.03,0,0
20101115,162.94,162.94,162.49,162.85,0,0
20101116,162.85,162.85,160.35,161.25,0,0
20101117,159.65,160.35,159.47,160,0,0
20101118,159.47,161.25,157.77,160.53,0,0
20101119,160.8,160.8,159.47,159.47,0,0
20101122,160.09,161.25,158.58,158.75,0,0
20101123,158.75,158.75,151.89,156.26,0,0
20101124,160.35,162.23,160.35,160.98,0,0
20101125,164.81,164.81,160.35,160.35,0,0
20101126,161.16,161.25,160,161.25,0,0
20101129,163.03,164.55,160.8,160.8,0,0
20101130,160.8,160.8,156.44,160.35,0,0
20101201,160.8,160.8,153.23,158.04,0,0
20101202,160.18,160.18,158.04,159.2,0,0
20101203,159.47,160.35,159.11,160.35,0,0
20101206,160.35,161.7,159.11,159.47,0,0
20101207,161.25,161.25,159.65,159.65,0,0
20101208,160.35,160.35,158.13,158.13,0,0
20101209,159.37,159.37,157.51,158.04,0,0
20101210,157.51,157.51,154.12,155.37,0,0
20101213,155.81,155.9,155.54,155.54,0,0
20101214,156.8,160.35,155.02,160.35,0,0
20101215,162.13,162.13,157.33,157.33,0,0
20101216,157.33,159.47,156.8,159.47,0,0
20101217,159.47,159.47,156.8,157.24,0,0
20101220,157.68,158.4,156.17,158.4,0,0
20101221,158.58,158.58,156.8,157.33,0,0
20101222,158.3,158.3,155.81,158.04,0,0
20101223,158.13,158.13,155.73,156.08,0,0
20101227,158.13,158.13,155.1,156.44,0,0
20101228,155.02,158.13,155.02,158.13,0,0
20101229,158.13,158.13,156.35,158.04,0,0
20101230,158.13,162.13,158.13,162.13,0,0
20101231,162.05,164.81,161.7,164.55,0,0
20110103,164.72,164.72,158.58,163.03,0,0
20110104,162.94,162.94,160.35,162.13,0,0
20110105,161.6,163.03,159.02,163.03,0,0
20110107,161.96,163.03,161.96,162.58,0,0
20110110,164.81,164.81,161.25,161.25,0,0
20110111,160.8,160.8,159.47,160.35,0,0
20110112,159.65,160.35,159.65,160.35,0,0
20110113,160.35,161.25,159.47,159.47,0,0
20110114,159.47,160.27,154.12,154.12,0,0
20110117,154.3,155.9,154.3,155.1,0,0
20110118,157.06,157.24,154.3,154.3,0,0
20110119,155.02,155.02,146.99,151.45,0,0
20110120,151.27,152.6,151.27,152.34,0,0
20110121,151.45,154.48,151.45,154.12,0,0
20110124,154.48,154.48,151.89,152.43,0,0
20110125,152.34,154.12,151.53,151.53,0,0
20110126,151.45,151.53,151.45,151.53,0,0
20110127,150.2,153.95,150.2,152.34,0,0
20110128,153.23,153.23,153.23,153.23,0,0
20110131,145.21,152.79,145.21,152.16,0,0
20110201,153.14,153.14,149.22,152.07,0,0
20110202,152.25,154.48,150.74,152.16,0,0
20110203,150.91,154.12,150.91,151.45,0,0
20110204,151.45,151.45,151.45,151.45,0,0
20110207,152.34,159.91,151.45,159.91,0,0
20110208,160.35,160.35,159.11,159.11,0,0
20110209,159.11,159.11,153.23,156.8,0,0
20110210,156.8,159.11,154.12,159.02,0,0
20110211,155.45,158.58,152.88,158.58,0,0
20110214,159.47,159.47,153.67,157.42,0,0
20110215,159.29,159.29,155.54,155.54,0,0
20110216,155.02,155.54,153.67,153.67,0,0
20110217,152.34,153.67,151.98,153.67,0,0
20110218,152.79,153.67,152.34,153.67,0,0
20110221,152.52,153.67,152.52,153.23,0,0
20110222,153.23,153.67,153.23,153.23,0,0
20110223,153.23,156.8,153.23,155.54,0,0
20110224,156.8,158.75,156.8,157.68,0,0
20110225,157.68,157.68,156.97,157.15,0,0
20110228,157.68,157.68,155.45,157.42,0,0
20110301,157.51,157.51,154.66,155.9,0,0
20110302,157.24,159.2,155.45,159.2,0,0
20110303,159.02,160.35,155.99,160.35,0,0
20110304,159.91,162.41,159.91,162.41,0,0
20110307,162.58,164.63,162.13,163.48,0,0
20110308,165.26,165.7,163.48,164.36,0,0
20110309,164.72,165.08,163.29,164.46,0,0
20110310,164.19,164.46,161.7,161.78,0,0
20110311,161.25,161.78,157.87,158.13,0,0
20110314,157.68,160.8,157.68,160.8,0,0
20110315,157.06,162.94,157.06,162.94,0,0
20110316,164.1,164.1,163.2,163.2,0,0
20110317,164.36,164.36,163.2,163.2,0,0
20110318,164.36,164.36,161.7,161.7,0,0
20110321,160.35,162.13,160.35,162.13,0,0
20110322,163.2,166.5,162.13,165.08,0,0
20110323,165.26,165.26,165.26,165.26,0,0
20110324,165.52,165.52,162.58,162.58,0,0
20110325,162.58,163.48,160.35,163.48,0,0
20110328,163.48,164.01,163.03,163.03,0,0
20110329,163.74,163.92,160.44,163.83,0,0
20110330,163.92,163.92,163.48,163.48,0,0
20110331,163.48,163.48,160.53,162.13,0,0
20110401,163.48,163.48,160.71,162.85,0,0
20110404,163.12,163.12,155.9,160.35,0,0
20110405,155.9,160.35,155.9,157.68,0,0
20110406,156.44,158.58,155.1,156.88,0,0
20110407,160.18,160.18,156.88,158.58,0,0
20110408,157.68,159.73,156.8,158.58,0,0
20110411,156.8,158.58,155.99,155.99,0,0
20110412,155.9,156.26,153.23,155.02,0,0
20110413,155.19,158.04,153.23,154.12,0,0
20110414,155.02,155.02,153.31,154.57,0,0
20110415,156.35,156.35,153.31,153.31,0,0
20110418,153.23,154.57,148.96,154.57,0,0
20110419,154.12,155.45,154.12,155.45,0,0
20110420,155.37,155.45,154.12,154.48,0,0
20110421,155.81,155.81,151.89,151.89,0,0
20110426,151.89,151.89,148.33,149.67,0,0
20110427,150.56,150.56,149.67,150.46,0,0
20110428,150.46,150.56,147.08,147.08,0,0
20110429,147.89,147.89,142.71,146.99,0,0
20110502,150.46,150.46,146.99,146.99,0,0
20110504,147.89,147.89,146.11,146.11,0,0
20110505,146.82,146.9,145.21,145.21,0,0
20110506,144.76,144.76,142.54,142.54,0,0
20110509,142.54,142.54,140.4,142.54,0,0
20110510,142.63,142.63,137.64,141.65,0,0
20110511,140.67,141.65,140.67,140.93,0,0
20110512,140.67,142.54,140.67,140.67,0,0
20110513,141.65,141.65,131.14,131.94,0,0
20110516,124.72,131.94,123.84,125.17,0,0
20110517,125.43,126.06,122.94,123.65,0,0
20110518,126.06,126.06,122.77,123.2,0,0
20110519,124.19,124.19,119.02,119.02,0,0
20110520,118.13,121.07,118.13,120.27,0,0
20110523,120.18,121.16,120.18,120.71,0,0
20110524,120.71,120.71,120.35,120.71,0,0
20110525,120.71,121.07,120.71,121.07,0,0
20110526,121.16,121.16,120.09,120.09,0,0
20110527,119.82,121.16,119.82,121.16,0,0
20110530,121.7,124.27,120.71,120.71,0,0
20110531,121.16,121.16,120.71,120.71,0,0
20110601,121.61,121.61,120.71,121.07,0,0
20110602,121.16,121.61,121.16,121.61,0,0
20110603,121.61,121.96,121.61,121.61,0,0
20110606,121.61,124.27,121.25,124.27,0,0
20110607,124.27,124.27,121.34,124.27,0,0
20110608,124.55,127.66,124.55,126.06,0,0
20110609,126.06,127.66,126.06,127.66,0,0
20110610,128.38,128.38,125.26,128.38,0,0
20110613,128.38,129,126.95,127.84,0,0
20110614,128.29,128.37,126.59,128.37,0,0
20110615,128.9,128.9,125.23,125.67,0,0
20110616,125.67,125.67,122.08,122.98,0,0
20110617,123.88,123.88,122.08,122.08,0,0
20110620,122.08,122.08,119.84,119.84,0,0
20110621,119.84,119.84,109.97,116.25,0,0
20110622,116.52,116.52,110.24,112.21,0,0
20110624,110.41,110.41,101.44,103.77,0,0
20110627,103.77,103.77,95.69,95.69,0,0
20110628,98.656,100.54,95.155,96.497,0,0
20110629,96.497,97.761,96.137,96.944,0,0
20110630,98.744,103.24,98.296,98.744,0,0
20110701,99.64,102.33,97.849,97.849,0,0
20110704,98.744,98.744,95.067,95.067,0,0
20110705,95.875,96.05,92.013,93.356,0,0
20110706,93.356,93.356,91.741,92.908,0,0
20110707,92.461,92.908,92.461,92.461,0,0
20110708,92.461,92.461,91.566,92.286,0,0
20110711,92.286,92.286,90.662,90.662,0,0
20110712,90.662,90.662,89.767,89.767,0,0
20110713,90.759,92.101,89.767,89.767,0,0
20110714,87.258,89.495,87.16,87.16,0,0
20110715,86.178,86.178,85.283,85.283,0,0
20110718,83.309,84.379,80.79,82.589,0,0
20110719,82.589,82.589,78.728,79.536,0,0
20110720,77.201,79.448,75.587,79.448,0,0
20110721,79.711,79.711,75.85,79.536,0,0
20110722,79.536,79.536,78.544,78.816,0,0
20110725,78.544,79.711,78.544,79.711,0,0
20110726,79.448,79.448,78.369,79.351,0,0
20110727,79.351,79.351,77.377,77.377,0,0
20110728,77.377,78.991,75.49,78.991,0,0
20110729,78.544,78.544,76.394,78.544,0,0
20110801,78.544,85.731,78.544,81.685,0,0
20110802,81.685,83.932,81.685,81.685,0,0
20110803,80.79,81.685,78.544,79.448,0,0
20110804,79.351,79.351,71.814,71.814,0,0
20110805,69.567,71.814,66.873,68.847,0,0
20110808,63.732,65.978,63.644,63.732,0,0
20110809,63.732,65.531,61.135,63.732,0,0
20110810,64.539,67.777,64.539,66.338,0,0
20110811,65.531,70.014,65.531,67.33,0,0
20110812,70.014,71.814,67.33,71.814,0,0
20110816,78.991,78.991,76.307,77.201,0,0
20110817,77.201,77.649,77.201,77.201,0,0
20110818,77.201,77.201,69.567,69.567,0,0
20110819,69.567,69.567,65.531,69.12,0,0
20110822,70.919,71.814,70.919,70.919,0,0
20110823,72.533,72.533,69.12,70.919,0,0
20110824,71.726,71.726,68.76,69.839,0,0
20110825,70.014,70.014,68.497,70.014,0,0
20110826,70.014,70.014,69.752,70.014,0,0
20110829,70.919,70.919,70.919,70.919,0,0
20110830,71.814,71.814,70.831,70.919,0,0
20110831,71.814,71.814,69.927,69.927,0,0
20110901,69.207,69.927,68.76,69.12,0,0
20110902,69.12,69.12,65.803,65.978,0,0
20110905,62.837,65.978,60.59,61.495,0,0
20110906,59.695,60.503,59.248,60.503,0,0
20110907,59.336,61.038,59.336,60.95,0,0
20110908,60.503,63.284,60.503,62.117,0,0
20110909,62.117,63.644,62.117,63.644,0,0
20110912,62.117,62.117,59.695,60.143,0,0
20110913,60.23,60.23,58.528,59.423,0,0
20110914,59.161,59.161,58.528,58.528,0,0
20110915,58.528,58.528,55.659,57.449,0,0
20110916,57.449,57.449,53.86,54.755,0,0
20110919,55.115,55.115,54.308,54.492,0,0
20110920,54.395,54.58,54.395,54.58,0,0
20110921,54.755,54.755,53.773,53.86,0,0
20110922,53.228,53.325,51.886,51.886,0,0
20110923,51.166,51.886,50.271,51.166,0,0
20110926,49.377,50.271,45.778,49.639,0,0
20110927,49.912,49.912,47.752,48.744,0,0
20110928,48.657,49.192,48.472,49.017,0,0
20110929,48.92,49.017,47.577,48.025,0,0
20110930,48.025,48.025,46.77,47.577,0,0
20111003,47.577,47.577,44.971,44.971,0,0
20111004,44.883,44.971,44.076,44.883,0,0
20111005,44.883,46.138,44.524,45.691,0,0
20111006,46.226,46.498,44.883,46.226,0,0
20111007,47.49,47.49,45.963,46.226,0,0
20111010,46.585,46.585,45.875,46.323,0,0
20111011,46.226,46.683,45.331,46.051,0,0
20111012,46.683,47.393,45.778,45.875,0,0
20111013,45.963,47.577,45.875,45.875,0,0
20111014,47.305,51.166,47.305,51.166,0,0
20111017,52.158,62.837,52.158,55.115,0,0
20111018,55.115,55.115,51.166,51.438,0,0
20111019,51.614,52.965,50.087,50.719,0,0
20111020,50.271,50.719,48.744,49.999,0,0
20111021,50.544,52.518,48.21,52.518,0,0
20111024,52.878,54.308,52.061,54.308,0,0
20111025,54.667,54.755,51.798,51.798,0,0
20111026,52.061,52.333,50.894,50.894,0,0
20111027,51.166,56.107,51.166,55.3,0,0
20111028,57.993,58.169,54.94,54.94,0,0
20111031,55.659,55.659,53.86,54.308,0,0
20111102,52.693,52.965,50.271,52.061,0,0
20111103,51.614,54.755,51.614,54.755,0,0
20111104,55.562,55.562,53.413,55.027,0,0
20111107,55.115,55.659,54.755,54.755,0,0
20111108,54.755,55.3,53.86,54.755,0,0
20111109,54.755,54.755,52.965,52.965,0,0
20111110,51.973,52.061,51.973,52.061,0,0
20111114,53.413,53.413,52.246,52.246,0,0
20111115,50.359,50.359,48.472,49.377,0,0
20111116,49.017,49.017,48.56,48.832,0,0
20111117,49.017,49.017,47.665,48.744,0,0
20111118,49.727,49.727,45.963,45.963,0,0
20111121,45.778,45.778,43.716,43.716,0,0
20111122,43.716,44.251,40.487,40.575,0,0
20111123,39.855,42.189,36.626,39.855,0,0
20111124,39.855,39.855,39.68,39.68,0,0
20111125,39.855,39.855,39.32,39.408,0,0
20111128,39.495,39.495,35.994,37.794,0,0
20111129,37.346,39.408,37.249,39.408,0,0
20111130,39.408,40.4,37.881,40.303,0,0
20111201,40.4,41.295,37.706,39.408,0,0
20111202,39.233,39.233,38.153,38.776,0,0
20111205,38.873,38.961,37.346,37.706,0,0
20111206,37.706,38.601,37.706,38.513,0,0
20111207,38.601,38.601,36.354,37.706,0,0
20111208,37.794,37.794,36.354,36.354,0,0
20111209,36.442,36.986,34.205,36.986,0,0
20111212,36.354,37.434,36.354,37.434,0,0
20111213,37.706,38.601,37.706,38.513,0,0
20111214,38.601,39.32,37.881,38.601,0,0
20111215,39.048,39.048,38.153,38.601,0,0
20111216,38.961,39.32,38.066,38.601,0,0
20111219,39.048,39.32,38.416,38.416,0,0
20111220,39.048,39.048,38.688,39.048,0,0
20111221,39.768,39.768,39.495,39.583,0,0
20111222,39.768,40.303,39.495,39.943,0,0
20111223,40.4,40.4,39.943,40.04,0,0
20111227,39.943,40.04,39.136,39.495,0,0
20111228,39.495,39.495,39.233,39.495,0,0
20111229,39.233,39.495,39.048,39.495,0,0
20111230,39.495,39.495,39.408,39.495,0,0
20120102,39.32,39.32,39.136,39.136,0,0
20120103,39.136,39.408,38.601,39.408,0,0
20120104,39.408,39.408,38.328,38.328,0,0
20120105,38.601,39.233,37.881,38.513,0,0
20120109,39.233,39.233,39.048,39.233,0,0
20120110,39.233,40.303,39.233,40.215,0,0
20120111,40.215,43.269,40.215,43.269,0,0
20120112,43.084,46.585,43.084,45.691,0,0
20120113,45.691,47.043,44.883,44.883,0,0
20120116,44.796,45.691,44.796,45.603,0,0
20120117,45.691,49.377,45.691,49.377,0,0
20120118,52.061,52.781,51.351,52.333,0,0
20120119,52.333,53.588,52.246,52.421,0,0
20120120,52.421,52.878,51.166,51.166,0,0
20120123,50.719,50.719,48.385,50.631,0,0
20120124,50.359,55.115,50.359,55.115,0,0
20120125,55.115,58.801,55.115,58.801,0,0
20120126,61.038,62.749,61.038,61.757,0,0
20120127,62.03,64.189,61.942,64.189,0,0
20120130,63.469,64.636,63.284,64.636,0,0
20120131,64.539,66.25,64.091,65.531,0,0
20120201,65.531,65.531,62.837,64.996,0,0
20120202,64.636,65.531,64.636,65.531,0,0
20120203,64.899,66.066,63.732,65.531,0,0
20120206,64.189,66.25,64.189,65.443,0,0
20120207,65.443,65.978,63.557,64.636,0,0
20120208,65.258,65.891,65.258,65.618,0,0
20120209,65.618,65.618,64.189,65.083,0,0
20120210,65.258,65.258,62.924,64.451,0,0
20120213,64.364,69.12,64.364,69.12,0,0
20120214,72.086,72.086,67.33,68.137,0,0
20120215,68.137,72.533,68.137,72.533,0,0
20120216,72.446,72.446,70.471,71.814,0,0
20120217,72.708,78.096,72.621,73.613,0,0
20120220,77.114,79.808,76.307,78.903,0,0
20120221,79.808,79.895,73.788,73.788,0,0
20120222,73.613,73.613,70.014,71.814,0,0
20120223,71.006,74.955,71.006,73.613,0,0
20120224,73.613,74.507,72.261,72.261,0,0
20120227,72.621,72.621,71.094,71.726,0,0
20120228,71.726,71.726,71.006,71.006,0,0
20120229,67.865,68.225,64.189,64.189,0,0
20120301,62.03,67.952,61.67,67.33,0,0
20120302,65.978,67.33,65.978,67.233,0,0
20120305,66.873,67.952,66.163,66.698,0,0
20120306,66.698,66.698,63.829,64.004,0,0
20120307,64.539,65.531,63.284,65.531,0,0
20120308,65.531,67.145,65.346,67.058,0,0
20120309,67.058,67.058,65.978,66.426,0,0
20120312,66.426,66.426,64.189,64.636,0,0
20120313,65.083,65.083,64.189,64.636,0,0
20120314,64.636,66.163,64.636,64.636,0,0
20120315,64.636,65.083,64.636,64.636,0,0
20120316,63.557,63.557,60.143,60.415,0,0
20120319,61.855,62.749,60.415,62.749,0,0
20120320,61.495,62.749,61.038,62.749,0,0
20120321,61.038,61.038,58.353,59.248,0,0
20120322,59.695,59.695,57.274,58.081,0,0
20120323,56.194,59.608,56.194,59.063,0,0
20120326,59.063,59.063,57.449,58.703,0,0
20120327,58.801,59.968,58.703,59.968,0,0
20120328,60.055,62.117,59.968,62.117,0,0
20120329,61.038,62.837,61.038,62.749,0,0
20120330,63.284,63.284,60.863,62.565,0,0
20120402,62.662,62.749,62.205,62.749,0,0
20120403,62.662,62.749,61.038,61.038,0,0
20120404,61.495,61.495,57.634,57.634,0,0
20120405,56.554,59.161,56.554,57.634,0,0
20120410,56.554,57.809,53.86,54.667,0,0
20120411,52.421,54.667,52.421,54.667,0,0
20120412,54.667,54.667,53.86,54.492,0,0
20120413,54.667,54.755,53.86,53.86,0,0
20120416,54.852,55.562,54.852,55.475,0,0
20120417,54.755,56.467,54.755,54.755,0,0
20120418,54.852,58.081,54.852,57.449,0,0
20120419,58.169,59.783,57.449,58.353,0,0
20120420,59.871,59.871,58.081,59.063,0,0
20120423,58.703,58.703,52.965,55.3,0,0
20120424,50.359,58.256,50.359,58.256,0,0
20120425,55.747,55.747,53.773,53.773,0,0
20120426,53.685,53.685,50.271,50.544,0,0
20120427,49.912,53.773,49.824,53.773,0,0
20120430,53.86,55.115,53.773,54.755,0,0
20120502,55.202,55.562,54.22,54.755,0,0
20120504,55.3,55.475,54.755,55.475,0,0
20120507,54.755,54.755,52.333,53.86,0,0
20120508,54.492,54.492,52.965,52.965,0,0
20120509,53.228,53.228,52.246,52.246,0,0
20120510,52.061,52.061,51.079,52.061,0,0
20120511,50.894,52.333,50.894,51.166,0,0
20120514,51.166,51.166,50.184,50.991,0,0
20120515,51.166,51.166,50.631,50.631,0,0
20120516,49.552,49.552,45.778,47.577,0,0
20120517,46.226,46.226,44.164,44.164,0,0
20120518,44.164,47.577,42.014,47.49,0,0
20120521,47.218,53.86,47.218,53.773,0,0
20120522,53.773,55.3,53.685,53.685,0,0
20120523,53.053,53.053,52.061,52.061,0,0
20120524,52.061,52.061,50.271,50.271,0,0
20120525,50.991,50.991,49.377,49.377,0,0
20120528,49.377,49.377,47.577,48.92,0,0
20120529,49.377,49.377,47.85,47.85,0,0
20120530,48.385,48.385,45.516,45.778,0,0
20120531,44.883,44.883,42.462,44.883,0,0
20120601,44.436,46.858,43.541,44.436,0,0
20120604,44.251,44.251,40.847,41.917,0,0
20120605,40.575,41.917,39.233,39.768,0,0
20120606,39.68,39.68,38.601,38.601,0,0
20120608,38.153,41.382,38.153,41.382,0,0
20120611,41.382,43.084,41.295,43.084,0,0
20120612,43.084,44.971,43.084,44.164,0,0
20120613,44.883,48.472,44.883,48.472,0,0
20120614,48.472,52.965,48.472,52.781,0,0
20120615,53.413,55.562,52.878,55.562,0,0
20120618,55.659,55.659,55.562,55.562,0,0
20120619,55.659,55.659,54.755,55.475,0,0
20120620,55.475,55.475,51.166,51.166,0,0
20120621,51.166,51.886,48.025,48.025,0,0
20120622,48.472,48.472,44.883,45.603,0,0
20120625,44.883,44.883,43.181,43.181,0,0
20120626,43.181,45.516,43.181,44.708,0,0
20120627,46.683,47.49,44.076,44.076,0,0
20120628,43.901,46.226,41.295,41.917,0,0
20120629,42.189,42.189,37.794,38.066,0,0
20120702,37.969,37.969,33.038,34.108,0,0
20120703,34.467,35.012,31.063,31.773,0,0
20120704,31.871,31.871,30.256,30.966,0,0
20120705,31.063,33.125,30.791,33.125,0,0
20120706,33.125,34.827,33.125,34.292,0,0
20120709,34.02,35.819,33.757,35.819,0,0
20120710,36.899,36.899,35.012,35.732,0,0
20120711,35.634,35.732,33.213,33.66,0,0
20120712,33.213,33.213,32.318,32.406,0,0
20120713,32.678,33.125,32.59,32.94,0,0
20120716,33.125,33.213,32.678,32.94,0,0
20120717,33.038,33.038,32.318,32.678,0,0
20120718,32.318,34.292,32.318,34.292,0,0
20120719,34.38,34.38,33.213,33.213,0,0
20120720,33.213,33.213,32.765,32.94,0,0
20120723,32.318,32.493,31.423,32.493,0,0
20120724,32.493,32.493,31.598,32.318,0,0
20120725,31.686,32.318,31.686,32.318,0,0
20120726,32.318,32.493,31.151,31.423,0,0
20120727,31.686,32.133,30.879,32.046,0,0
20120730,31.958,32.133,31.958,32.133,0,0
20120731,32.133,32.133,30.606,31.423,0,0
20120801,31.238,31.423,28.457,30.159,0,0
20120802,30.159,32.318,29.624,30.159,0,0
20120803,31.063,31.063,28.545,29.439,0,0
20120806,29.352,29.352,29.352,29.352,0,0
20120807,29.352,30.791,29.352,30.791,0,0
20120808,31.063,32.23,31.063,31.686,0,0
20120809,31.686,31.686,31.686,31.686,0,0
20120810,31.686,31.686,31.686,31.686,0,0
20120813,31.238,32.133,31.238,32.133,0,0
20120814,32.046,32.133,30.879,30.879,0,0
20120816,30.879,31.063,30.879,31.063,0,0
20120817,31.151,31.151,31.063,31.151,0,0
20120820,31.686,31.686,30.606,31.238,0,0
20120821,31.326,31.326,30.431,31.326,0,0
20120822,31.686,31.686,30.791,31.423,0,0
20120823,31.423,31.958,30.879,31.958,0,0
20120824,31.958,33.213,31.958,33.213,0,0
20120827,33.485,33.485,33.038,33.125,0,0
20120828,32.133,32.678,31.423,32.23,0,0
20120829,32.318,32.318,30.879,32.318,0,0
20120830,32.318,32.678,31.511,32.23,0,0
20120831,31.423,32.23,30.071,31.871,0,0
20120903,31.871,31.871,31.423,31.871,0,0
20120904,32.133,32.133,31.686,31.686,0,0
20120905,29.352,31.686,29.352,30.791,0,0
20120906,30.704,31.063,29.799,30.791,0,0
20120907,30.519,32.59,30.519,31.326,0,0
20120910,31.423,33.3,31.326,32.318,0,0
20120911,32.318,32.853,31.871,32.133,0,0
20120912,32.23,32.59,32.133,32.318,0,0
20120913,32.318,32.318,32.318,32.318,0,0
20120914,31.871,32.406,31.598,32.318,0,0
20120917,32.406,32.406,31.598,32.23,0,0
20120918,32.318,32.318,31.423,31.598,0,0
20120919,31.423,32.23,30.431,31.871,0,0
20120920,31.871,31.871,29.624,29.896,0,0
20120921,29.896,30.879,29.896,30.879,0,0
20120924,31.326,32.133,31.326,31.871,0,0
20120925,31.958,31.958,31.423,31.958,0,0
20120926,32.318,32.318,31.423,32.23,0,0
20120927,32.23,34.02,31.511,34.02,0,0
20120928,34.02,34.02,33.125,33.125,0,0
20121001,33.125,33.398,32.94,33.213,0,0
20121002,32.853,33.573,32.853,33.213,0,0
20121003,33.213,33.213,32.133,33.125,0,0
20121004,33.125,33.125,31.598,32.678,0,0
20121005,32.853,32.853,32.318,32.678,0,0
20121008,32.678,33.038,32.678,33.038,0,0
20121009,33.038,35.012,33.038,33.213,0,0
20121010,33.66,33.66,33.213,33.213,0,0
20121011,33.213,33.3,32.94,33.213,0,0
20121012,32.94,34.02,32.94,33.213,0,0
20121015,33.213,33.213,33.038,33.213,0,0
20121016,33.213,33.213,32.765,33.125,0,0
20121017,33.125,33.213,32.493,33.213,0,0
20121018,33.213,33.213,33.125,33.213,0,0
20121019,33.398,33.398,32.94,32.94,0,0
20121022,33.213,33.213,32.94,33.213,0,0
20121023,32.94,33.213,32.765,33.213,0,0
20121024,32.318,32.678,31.598,31.958,0,0
20121025,32.046,32.046,32.046,32.046,0,0
20121026,31.871,32.23,31.423,32.23,0,0
20121029,32.318,32.318,30.704,31.063,0,0
20121030,30.704,31.686,30.431,31.686,0,0
20121031,31.686,33.213,31.511,32.678,0,0
20121102,32.678,33.213,31.598,31.871,0,0
20121105,31.686,32.94,31.686,32.23,0,0
20121106,32.59,32.59,31.871,32.318,0,0
20121107,32.59,32.853,32.318,32.318,0,0
20121108,32.133,32.59,32.133,32.318,0,0
20121109,32.133,32.59,32.133,32.133,0,0
20121112,32.318,32.318,32.23,32.23,0,0
20121113,31.871,32.493,30.704,31.871,0,0
20121114,30.704,31.871,30.704,31.871,0,0
20121115,31.423,31.871,28.632,30.704,0,0
20121116,28.904,30.606,28.904,29.799,0,0
20121119,30.344,30.344,30.344,30.344,0,0
20121120,30.606,31.151,30.344,31.151,0,0
20121121,31.238,31.326,31.151,31.151,0,0
20121122,31.423,31.423,31.238,31.326,0,0
20121123,31.326,31.326,31.238,31.326,0,0
20121126,31.326,31.326,31.238,31.238,0,0
20121127,30.519,30.966,30.519,30.966,0,0
20121128,30.879,30.966,29.624,30.256,0,0
20121129,30.256,31.238,28.457,28.457,0,0
20121130,29.177,31.238,29.177,30.966,0,0
20121203,31.238,32.318,30.879,32.318,0,0
20121204,32.133,32.133,31.871,31.871,0,0
20121205,31.871,32.23,31.871,32.23,0,0
20121206,32.23,32.23,30.791,32.046,0,0
20121207,32.046,32.318,30.791,31.871,0,0
20121210,32.046,32.318,31.423,32.046,0,0
20121211,32.133,32.133,31.598,32.133,0,0
20121212,32.133,32.133,31.063,31.871,0,0
20121213,31.871,34.924,30.966,34.924,0,0
20121214,35.012,36.354,35.012,35.819,0,0
20121217,36.714,36.714,34.467,34.652,0,0
20121218,35.1,35.1,34.108,34.108,0,0
20121219,34.38,35.012,34.108,34.924,0,0
20121220,34.924,35.012,34.108,34.652,0,0
20121221,34.38,34.38,34.108,34.108,0,0
20121227,34.108,34.38,33.125,34.292,0,0
20121228,34.292,35.012,33.66,35.012,0,0
20130102,34.924,34.924,34.467,34.467,0,0
20130103,34.02,34.565,33.398,34.108,0,0
20130104,34.108,34.108,33.398,33.932,0,0
20130107,33.66,33.932,33.213,33.573,0,0
20130108,33.573,33.573,33.125,33.125,0,0
20130109,33.213,33.398,33.125,33.3,0,0
20130110,33.66,34.02,33.213,33.213,0,0
20130111,33.213,33.757,33.213,33.66,0,0
20130114,33.485,33.845,33.485,33.66,0,0
20130115,33.66,33.757,33.038,33.038,0,0
20130117,33.3,33.757,33.3,33.66,0,0
20130118,33.757,33.757,33.485,33.485,0,0
20130121,33.932,40.935,33.757,38.776,0,0
20130122,38.241,38.601,37.434,37.794,0,0
20130123,38.066,38.153,37.074,37.609,0,0
20130124,36.899,39.768,36.899,39.048,0,0
20130125,39.048,39.048,38.153,38.776,0,0
20130128,38.776,41.11,38.688,40.575,0,0
20130129,40.847,41.11,39.768,40.575,0,0
20130130,40.935,42.462,39.048,40.575,0,0
20130131,40.303,40.303,38.601,39.68,0,0
20130201,38.601,39.68,37.609,38.328,0,0
20130204,37.249,39.136,37.074,38.416,0,0
20130205,38.416,39.233,37.969,39.233,0,0
20130206,39.32,39.495,38.873,38.873,0,0
20130207,38.776,39.495,37.881,38.416,0,0
20130208,38.416,38.416,37.074,38.416,0,0
20130211,38.601,40.128,38.601,39.408,0,0
20130212,39.408,40.303,39.32,40.04,0,0
20130213,40.215,41.022,39.32,39.68,0,0
20130214,39.68,40.215,39.32,39.408,0,0
20130215,39.68,40.215,39.32,39.943,0,0
20130218,39.943,41.742,39.943,41.742,0,0
20130219,41.742,43.716,41.022,43.716,0,0
20130220,43.989,43.989,41.742,41.742,0,0
20130221,40.847,42.637,40.847,42.462,0,0
20130222,42.189,43.181,42.189,42.997,0,0
20130225,42.909,44.349,42.909,43.989,0,0
20130226,43.989,46.138,43.989,45.603,0,0
20130227,45.603,46.226,43.629,44.611,0,0
20130228,44.076,45.331,44.076,44.611,0,0
20130301,43.804,44.708,43.804,44.708,0,0
20130304,44.796,44.796,42.997,43.084,0,0
20130305,43.444,43.444,41.917,42.189,0,0
20130306,42.277,43.181,42.189,43.084,0,0
20130307,42.997,43.804,42.997,42.997,0,0
20130308,42.997,42.997,41.022,42.549,0,0
20130311,43.901,43.901,42.189,42.637,0,0
20130312,42.734,43.084,42.102,42.102,0,0
20130313,42.189,42.549,39.495,41.47,0,0
20130314,41.207,41.295,40.04,40.04,0,0
20130315,40.847,42.189,39.68,40.847,0,0
20130318,42.014,42.549,41.917,42.549,0,0
20130319,41.917,42.549,41.742,42.277,0,0
20130320,42.277,42.549,42.277,42.374,0,0
20130321,42.189,42.189,39.943,41.567,0,0
20130322,40.128,40.4,38.153,40.215,0,0
20130325,40.487,40.487,38.776,39.408,0,0
20130326,38.416,39.233,35.819,36.899,0,0
20130327,38.601,38.601,36.899,36.899,0,0
20130328,38.328,38.961,37.794,38.416,0,0
20130402,37.521,38.416,36.714,37.346,0,0
20130403,37.346,37.346,36.986,36.986,0,0
20130404,36.986,36.986,35.907,35.907,0,0
20130405,36.986,37.521,35.907,35.907,0,0
20130408,35.012,36.802,35.012,35.994,0,0
20130409,36.267,36.986,36.267,36.354,0,0
20130410,36.082,36.354,33.845,34.02,0,0
20130411,34.108,34.292,32.94,34.108,0,0
20130412,34.108,34.108,32.765,33.125,0,0
20130415,32.853,33.3,32.853,33.3,0,0
20130417,33.485,33.485,32.318,32.94,0,0
20130418,32.406,32.406,31.151,31.151,0,0
20130419,31.598,31.598,29.624,31.511,0,0
20130422,32.133,32.133,29.264,30.966,0,0
20130423,29.624,30.704,29.624,30.519,0,0
20130424,30.704,31.238,30.519,31.063,0,0
20130425,30.966,31.238,30.071,30.071,0,0
20130426,30.071,30.879,29.264,30.879,0,0
20130429,31.151,31.686,31.151,31.511,0,0
20130430,31.511,31.511,31.423,31.511,0,0
20130502,31.423,31.423,31.326,31.326,0,0
20130506,31.326,31.326,29.896,30.519,0,0
20130507,29.799,31.423,29.799,31.238,0,0
20130508,31.238,31.686,30.966,31.686,0,0
20130509,32.318,32.765,32.046,32.046,0,0
20130510,32.318,32.853,32.046,32.853,0,0
20130513,32.853,34.108,32.765,34.108,0,0
20130514,34.292,35.372,34.205,35.372,0,0
20130515,35.994,39.495,35.994,39.495,0,0
20130516,39.943,40.04,38.601,40.04,0,0
20130517,40.303,40.303,39.136,40.215,0,0
20130520,39.495,40.215,39.048,39.495,0,0
20130521,39.495,39.495,38.601,39.495,0,0
20130522,38.776,38.776,38.776,38.776,0,0
20130523,38.776,38.776,35.732,38.513,0,0
20130524,38.513,38.513,37.434,38.416,0,0
20130527,35.732,39.408,35.732,39.408,0,0
20130528,38.153,39.408,38.153,38.601,0,0
20130529,40.128,40.128,37.881,38.513,0,0
20130531,38.416,39.495,38.416,38.776,0,0
20130603,39.583,39.583,38.776,39.408,0,0
20130604,39.233,39.408,37.609,38.873,0,0
20130605,38.241,38.873,38.241,38.688,0,0
20130606,37.969,38.153,37.969,38.066,0,0
20130607,38.066,38.066,36.539,37.706,0,0
20130610,36.899,39.855,36.899,39.855,0,0
20130611,38.416,39.768,38.416,39.495,0,0
20130612,39.408,39.408,37.346,38.153,0,0
20130613,36.802,39.408,36.802,39.408,0,0
20130614,38.776,40.04,38.776,40.04,0,0
20130617,40.04,40.215,39.048,40.215,0,0
20130618,40.303,40.847,39.495,40.847,0,0
20130619,41.11,42.549,41.11,42.549,0,0
20130620,43.541,43.541,39.233,42.374,0,0
20130621,38.873,42.374,38.873,42.374,0,0
20130624,38.601,39.408,38.601,39.32,0,0
20130625,38.873,39.408,38.873,39.408,0,0
20130626,39.048,39.048,38.873,38.873,0,0
20130627,39.136,39.768,37.249,37.794,0,0
20130628,37.794,37.794,34.292,37.521,0,0
20130701,37.434,37.434,35.907,36.082,0,0
20130702,35.907,37.249,35.907,37.249,0,0
20130703,36.354,38.328,36.354,38.328,0,0
20130704,38.153,38.601,37.249,37.521,0,0
20130705,37.521,37.521,36.986,36.986,0,0
20130708,37.161,37.249,36.179,37.249,0,0
20130709,37.521,37.609,36.802,36.802,0,0
20130710,36.986,37.249,36.354,37.249,0,0
20130711,37.249,37.249,36.539,36.802,0,0
20130712,37.074,37.074,36.082,36.626,0,0
20130715,36.354,36.802,36.354,36.802,0,0
20130716,37.346,37.706,36.626,37.521,0,0
20130717,37.706,37.706,36.802,37.521,0,0
20130718,37.249,37.249,37.249,37.249,0,0
20130722,36.354,36.354,35.372,35.459,0,0
20130723,35.012,35.187,35.012,35.187,0,0
20130724,35.819,36.899,35.634,35.994,0,0
20130725,37.161,37.706,37.161,37.706,0,0
20130726,37.706,37.706,37.249,37.434,0,0
20130729,37.609,37.706,37.609,37.706,0,0
20130730,37.706,37.706,37.161,37.161,0,0
20130731,36.802,36.802,36.626,36.626,0,0
20130801,36.802,36.802,35.994,36.082,0,0
20130802,36.082,36.802,36.082,36.802,0,0
20130805,36.802,36.802,36.802,36.802,0,0
20130806,36.899,37.706,36.802,37.706,0,0
20130807,37.346,39.495,37.346,39.495,0,0
20130808,42.189,42.189,41.295,41.655,0,0
20130809,41.655,41.917,39.048,41.295,0,0
20130812,41.655,41.742,39.943,39.943,0,0
20130813,40.128,40.128,39.32,39.495,0,0
20130814,39.495,42.189,39.495,42.189,0,0
20130816,42.637,42.637,41.295,41.295,0,0
20130819,41.295,43.084,41.295,43.084,0,0
20130820,43.629,43.804,43.084,43.629,0,0
20130821,43.629,43.629,42.189,42.462,0,0
20130822,43.181,43.181,42.462,42.997,0,0
20130823,43.084,43.541,42.637,43.084,0,0
20130826,43.084,44.349,43.084,43.989,0,0
20130827,44.708,44.708,43.989,43.989,0,0
20130828,43.989,43.989,43.989,43.989,0,0
20130829,43.989,43.989,43.357,43.357,0,0
20130830,43.989,43.989,39.583,43.444,0,0
20130902,41.83,41.83,41.742,41.742,0,0
20130903,42.189,44.076,42.189,44.076,0,0
20130904,44.251,44.436,43.541,44.436,0,0
20130905,44.436,44.436,42.909,43.989,0,0
20130906,43.269,43.901,43.269,43.901,0,0
20130909,43.541,43.901,43.541,43.901,0,0
20130910,43.901,46.498,43.084,46.323,0,0
20130911,46.683,48.385,46.683,48.025,0,0
20130912,48.025,48.025,47.85,47.85,0,0
20130913,50.271,55.202,50.271,54.045,0,0
20130916,58.353,58.353,55.747,57.993,0,0
20130917,58.169,61.582,57.361,60.775,0,0
20130918,60.775,60.775,58.801,59.161,0,0
20130919,59.063,61.855,58.169,60.23,0,0
20130920,60.775,60.775,60.143,60.23,0,0
20130923,59.52,59.52,57.536,57.536,0,0
20130924,57.536,57.536,56.107,56.467,0,0
20130925,56.467,57.536,55.659,57.089,0,0
20130926,56.554,56.554,55.659,56.554,0,0
20130927,57.186,57.186,55.659,55.922,0,0
20130930,55.659,56.369,52.965,56.282,0,0
20131001,55.747,55.747,54.755,55.387,0,0
20131002,55.387,55.387,53.86,54.755,0,0
20131003,54.395,56.019,54.308,55.387,0,0
20131004,55.387,56.914,54.755,56.914,0,0
20131007,56.826,56.826,54.492,55.562,0,0
20131008,55.202,55.659,54.852,54.852,0,0
20131009,54.667,54.852,54.492,54.755,0,0
20131010,54.395,57.449,52.518,57.449,0,0
20131011,57.449,57.449,56.282,57.274,0,0
20131014,57.449,57.449,57.001,57.274,0,0
20131015,57.361,57.449,56.107,56.729,0,0
20131016,56.369,56.729,56.369,56.729,0,0
20131017,56.729,56.729,56.107,56.107,0,0
20131018,56.282,57.001,55.659,57.001,0,0
20131021,56.369,57.449,55.387,57.449,0,0
20131022,57.449,59.783,56.642,58.976,0,0
20131023,58.801,59.695,58.353,59.248,0,0
20131024,60.143,60.143,59.248,60.143,0,0
20131025,60.143,60.95,59.52,60.055,0,0
20131028,59.695,62.837,59.608,62.389,0,0
20131029,62.389,63.197,61.942,62.837,0,0
20131030,63.284,64.539,62.924,62.924,0,0
20131031,62.03,62.565,61.942,62.565,0,0
20131104,63.109,63.732,62.837,63.284,0,0
20131105,62.924,63.109,62.924,62.924,0,0
20131106,62.837,63.284,61.495,63.284,0,0
20131107,63.284,63.732,62.477,63.732,0,0
20131108,63.557,63.732,61.495,61.67,0,0
20131112,61.582,62.662,59.52,62.662,0,0
20131113,62.662,62.837,62.477,62.837,0,0
20131114,62.837,62.924,62.117,62.837,0,0
20131115,62.924,67.058,62.837,65.978,0,0
20131118,67.33,67.33,66.066,66.426,0,0
20131119,65.706,70.471,65.706,70.471,0,0
20131120,70.471,70.646,67.777,69.839,0,0
20131121,69.479,69.479,68.312,69.032,0,0
20131122,69.032,70.199,69.032,69.927,0,0
20131125,69.927,70.374,69.927,70.014,0,0
20131126,69.927,70.559,66.338,68.225,0,0
20131127,66.426,68.225,65.978,65.978,0,0
20131128,65.978,67.33,64.091,65.258,0,0
20131129,65.258,65.258,63.372,65.171,0,0
20131202,66.066,66.426,65.083,65.171,0,0
20131203,65.171,65.171,64.364,65.083,0,0
20131204,63.916,64.189,63.022,64.189,0,0
20131205,63.916,65.083,63.916,64.364,0,0
20131206,63.732,63.732,57.449,63.644,0,0
20131209,63.644,63.916,63.022,63.916,0,0
20131210,64.004,64.004,62.837,63.916,0,0
20131211,64.004,65.083,63.022,64.636,0,0
20131212,64.996,64.996,62.662,64.189,0,0
20131213,63.284,64.636,63.022,64.636,0,0
20131216,64.636,64.636,63.109,63.284,0,0
20131217,63.284,63.284,61.038,61.038,0,0
20131218,61.855,62.302,60.23,62.205,0,0
20131219,61.495,62.205,61.495,62.205,0,0
20131220,62.205,62.205,58.353,61.855,0,0
20131223,62.662,62.662,61.855,62.205,0,0
20131227,62.205,62.205,62.205,62.205,0,0
20131230,61.942,62.837,60.95,61.855,0,0
20140102,63.109,63.109,62.389,62.662,0,0
20140103,62.662,63.022,62.662,62.924,0,0
20140107,62.837,62.837,61.135,61.582,0,0
20140108,61.495,62.749,61.495,62.749,0,0
20140109,62.389,62.389,62.205,62.205,0,0
20140110,62.302,65.531,61.757,62.205,0,0
20140113,62.837,65.443,62.837,65.443,0,0
20140114,63.284,64.636,63.284,64.636,0,0
20140115,64.636,64.996,63.732,63.732,0,0
20140116,63.829,64.189,63.732,63.732,0,0
20140117,63.829,63.829,63.732,63.732,0,0
20140120,63.732,64.091,63.732,63.732,0,0
20140121,63.732,65.891,63.732,64.996,0,0
20140122,65.531,66.785,64.996,65.706,0,0
20140123,66.426,68.4,65.706,68.04,0,0
20140124,68.225,68.847,68.04,68.672,0,0
20140127,67.68,68.672,66.97,68.672,0,0
20140128,68.4,71.814,67.505,70.919,0,0
20140129,73.613,73.788,72.086,73.34,0,0
20140130,73.068,78.369,72.261,77.736,0,0
20140131,78.369,78.369,77.114,77.649,0,0
20140203,77.649,79.895,77.649,78.816,0,0
20140204,78.544,78.641,77.824,78.009,0,0
20140205,76.307,76.307,74.78,75.762,0,0
20140206,75.675,75.675,73.068,73.068,0,0
20140207,74.235,74.235,72.348,72.708,0,0
20140210,72.708,73.875,71.998,71.998,0,0
20140211,72.261,73.788,70.199,71.726,0,0
20140212,71.726,75.402,71.726,74.507,0,0
20140213,74.867,75.14,74.06,75.14,0,0
20140214,74.955,75.042,73.34,74.06,0,0
20140217,73.253,73.515,72.348,73.34,0,0
20140218,72.348,73.7,71.366,72.708,0,0
20140219,73.515,73.515,71.638,72.708,0,0
20140220,72.708,73.515,72.533,72.708,0,0
20140221,71.901,73.165,71.814,73.165,0,0
20140224,72.348,73.428,72.348,72.708,0,0
20140225,72.708,72.708,71.181,71.366,0,0
20140226,71.726,71.726,69.207,69.207,0,0
20140227,69.12,69.12,66.426,67.593,0,0
20140228,66.61,69.12,66.61,69.12,0,0
20140303,67.058,67.058,62.302,63.732,0,0
20140304,63.284,65.443,63.284,65.083,0,0
20140305,65.978,67.33,65.443,67.33,0,0
20140306,66.873,67.33,65.531,65.531,0,0
20140307,65.618,65.618,64.636,64.636,0,0
20140310,63.469,64.636,61.942,62.749,0,0
20140311,62.749,64.364,62.03,64.364,0,0
20140312,63.916,63.916,62.662,62.837,0,0
20140313,62.749,63.284,62.477,63.197,0,0
20140314,63.197,63.197,60.59,60.59,0,0
20140317,60.328,61.942,60.328,61.942,0,0
20140318,61.942,62.302,61.942,62.302,0,0
20140319,62.389,67.33,62.302,67.33,0,0
20140320,68.137,69.567,66.426,68.672,0,0
20140321,69.12,69.392,68.312,68.847,0,0
20140324,68.76,68.76,65.083,66.163,0,0
20140325,65.618,66.698,65.618,66.698,0,0
20140326,66.698,66.698,65.443,66.163,0,0
20140327,65.978,65.978,64.811,64.811,0,0
20140328,64.636,64.636,62.565,62.837,0,0
20140331,62.749,65.891,62.302,65.891,0,0
20140401,65.891,65.891,62.302,62.837,0,0
20140402,62.837,62.837,61.397,62.205,0,0
20140403,61.222,62.837,61.222,62.837,0,0
20140404,61.855,63.372,61.67,62.924,0,0
20140407,61.942,61.942,61.397,61.397,0,0
20140408,61.855,61.855,61.495,61.495,0,0
20140409,61.582,61.855,61.582,61.582,0,0
20140410,61.855,61.855,61.31,61.495,0,0
20140411,61.31,61.397,60.59,61.135,0,0
20140414,60.863,60.863,59.871,59.871,0,0
20140415,57.993,58.801,57.449,57.449,0,0
20140416,57.186,57.186,55.202,56.729,0,0
20140417,57.001,57.001,56.107,56.107,0,0
20140422,56.107,58.353,56.107,58.353,0,0
20140423,58.353,58.976,57.449,57.449,0,0
20140424,57.274,57.536,56.107,56.107,0,0
20140425,56.194,56.642,56.107,56.107,0,0
20140428,56.642,56.642,56.642,56.642,0,0
20140429,57.361,57.361,57.001,57.001,0,0
20140430,57.186,57.186,56.369,56.369,0,0
20140502,57.001,57.001,56.282,56.282,0,0
20140505,57.001,57.001,55.202,55.202,0,0
20140506,55.475,55.475,54.492,55.202,0,0
20140507,55.202,55.202,51.973,53.773,0,0
20140508,53.588,53.588,52.965,52.965,0,0
20140509,52.333,52.333,50.719,50.719,0,0
20140512,49.824,50.446,49.464,50.446,0,0
20140513,50.271,50.719,50.271,50.271,0,0
20140514,50.806,51.166,50.271,50.271,0,0
20140515,51.614,53.325,51.614,52.606,0,0
20140516,51.614,53.14,51.526,52.246,0,0
20140519,52.246,52.606,51.438,51.438,0,0
20140520,51.438,51.711,50.446,51.711,0,0
20140521,50.359,51.711,50.271,51.711,0,0
20140522,51.526,52.158,50.544,52.158,0,0
20140523,52.158,52.158,51.166,51.614,0,0
20140526,52.421,52.421,51.614,51.614,0,0
20140527,51.614,52.158,51.614,52.061,0,0
20140528,52.061,53.14,52.061,52.158,0,0
20140529,51.973,52.606,51.973,52.246,0,0
20140530,52.333,52.333,52.333,52.333,0,0
20140602,53.053,53.053,52.518,52.518,0,0
20140603,53.14,53.413,51.526,52.518,0,0
20140604,52.518,52.965,52.518,52.965,0,0
20140605,52.781,53.86,52.781,53.413,0,0
20140606,53.86,53.86,52.965,53.86,0,0
20140609,53.86,53.86,53.413,53.413,0,0
20140610,53.5,53.5,53.5,53.5,0,0
20140611,53.5,53.588,53.053,53.053,0,0
20140612,53.228,53.228,52.878,52.878,0,0
20140613,51.886,52.333,51.886,52.333,0,0
20140616,51.798,51.798,51.798,51.798,0,0
20140617,51.798,51.798,51.798,51.798,0,0
20140618,51.798,52.061,51.798,52.061,0,0
20140620,51.711,52.061,51.166,52.061,0,0
20140623,51.438,52.965,51.438,52.061,0,0
20140624,53.86,53.86,52.781,52.781,0,0
20140625,52.333,52.333,50.446,52.333,0,0
20140626,58.15,58.15,54.27,55.1,0,0
20140627,55.1,55.1,54.46,54.46,0,0
20140630,54,54,52.89,53.9,0,0
20140701,52.89,52.89,52.15,52.15,0,0
20140703,51.69,52.43,51.23,52.15,0,0
20140704,52.15,52.15,51.23,51.23,0,0
20140707,51.13,51.13,49.38,50.58,0,0
20140708,50.67,50.67,49.84,50.3,0,0
20140710,49.57,49.57,48.46,49.29,0,0
20140711,48.18,49.57,48,49.57,0,0
20140714,48.46,50.3,48.46,49.84,0,0
20140715,49.84,49.84,48.73,49.38,0,0
20140716,49.29,49.75,48.55,49.75,0,0
20140717,48,49.75,48,49.75,0,0
20140718,49.75,50.12,48.46,50.12,0,0
20140721,50.12,50.12,48.92,49.75,0,0
20140722,49.01,49.57,48.18,49.57,0,0
20140723,49.29,49.29,48.46,48.46,0,0
20140724,48.18,48.27,48.18,48.18,0,0
20140725,47.63,47.81,47.17,47.17,0,0
20140728,47.53,48,47.53,47.53,0,0
20140729,47.53,48.73,46.61,48.73,0,0
20140730,48.27,48.27,48.27,48.27,0,0
20140731,47.9,47.9,47.9,47.9,0,0
20140801,47.26,48,46.89,47.44,0,0
20140804,47.53,47.53,47.35,47.35,0,0
20140805,48,48.46,45.78,45.87,0,0
20140806,45.78,46.06,45.04,45.04,0,0
20140807,45.04,45.04,43.38,43.38,0,0
20140808,43.38,43.38,42.18,42.64,0,0
20140811,44.95,44.95,43.1,43.1,0,0
20140812,43.84,43.84,43.57,43.57,0,0
20140813,43.01,43.75,43.01,43.75,0,0
20140814,42.27,43.2,41.54,43.2,0,0
20140818,43.2,43.2,42.92,42.92,0,0
20140819,43.01,43.1,43.01,43.1,0,0
20140820,43.29,43.47,43.29,43.47,0,0
20140821,43.47,45.87,43.47,45.87,0,0
20140822,46.24,47.81,45.6,45.69,0,0
20140825,46.43,48.73,46.43,47.44,0,0
20140826,47.72,51.04,47.72,48.46,0,0
20140827,48.83,51.04,48.83,50.95,0,0
20140828,51.04,51.04,47.07,48.46,0,0
20140829,48.46,48.46,47.44,47.9,0,0
20140901,47.9,48,46.8,46.8,0,0
20140902,46.8,46.8,46.61,46.7,0,0
20140903,46.98,48.18,46.98,47.35,0,0
20140904,47.63,48.37,47.63,47.63,0,0
20140905,48,48,46.15,46.89,0,0
20140908,46.33,47.9,46.33,47.9,0,0
20140909,47.9,49.2,47.26,49.2,0,0
20140910,48.92,50.77,48.92,50.49,0,0
20140911,50.21,50.21,46.61,47.17,0,0
20140912,48,48.46,47.35,47.35,0,0
20140915,47.81,48.64,47.81,48.64,0,0
20140916,48.64,50.03,48.46,48.92,0,0
20140917,49.75,49.75,48.92,48.92,0,0
20140918,48.55,49.01,48.55,49.01,0,0
20140919,49.66,49.93,49.2,49.84,0,0
20140922,49.75,49.84,49.75,49.84,0,0
20140923,49.38,49.38,46.7,48.18,0,0
20140924,47.81,47.81,46.61,46.61,0,0
20140925,46.7,48.27,46.61,48.27,0,0
20140929,48,48,47.81,47.81,0,0
20140930,47.81,48.46,47.53,48.46,0,0
20141001,47.72,47.72,47.35,47.35,0,0
20141002,46.98,47.07,46.89,46.89,0,0
20141003,46.89,48,46.89,48,0,0
20141006,48,48,47.07,47.17,0,0
20141007,47.07,47.53,47.07,47.26,0,0
20141008,47.26,47.26,47.26,47.26,0,0
20141009,47.17,47.17,45.87,45.87,0,0
20141010,46.15,46.15,43.38,43.84,0,0
20141013,43.84,44.3,43.84,44.21,0,0
20141014,44.3,44.3,43.66,43.84,0,0
20141015,44.3,44.3,43.2,43.29,0,0
20141016,43.57,43.57,41.54,42,0,0
20141017,42.27,43.47,42,43.38,0,0
20141020,43.38,43.38,43.01,43.01,0,0
20141021,42.92,43.38,42.92,43.38,0,0
20141022,42.92,43.94,42.92,43.94,0,0
20141023,43.75,43.75,43.2,43.2,0,0
20141024,43.84,45.23,43.84,44.3,0,0
20141027,44.3,45.04,44.3,44.86,0,0
20141028,44.49,46.33,44.49,46.06,0,0
20141029,46.98,46.98,45.69,45.69,0,0
20141030,46.43,46.43,45.32,46.06,0,0
20141031,45.78,45.78,45.32,45.32,0,0
20141103,45.32,45.69,45.14,45.14,0,0
20141104,45.14,45.23,44.95,44.95,0,0
20141105,45.23,45.23,45.23,45.23,0,0
20141106,44.95,45.97,44.77,44.77,0,0
20141107,45.6,45.6,44.3,44.3,0,0
20141110,43.94,43.94,43.75,43.84,0,0
20141112,43.84,45.14,43.84,44.77,0,0
20141113,44.12,44.21,44.12,44.21,0,0
20141114,44.3,44.3,44.21,44.21,0,0
20141117,44.3,44.3,43.1,43.1,0,0
20141118,43.2,43.2,43.1,43.1,0,0
20141119,43.38,43.38,42.37,42.37,0,0
20141120,42.37,42.37,40.61,40.61,0,0
20141121,41.54,41.54,39.5,39.5,0,0
20141124,39.5,39.5,38.3,38.49,0,0
20141125,39.14,39.14,36.92,36.92,0,0
20141126,37.01,38.3,37.01,38.03,0,0
20141127,38.03,38.3,38.03,38.3,0,0
20141128,38.21,38.77,37.84,38.3,0,0
20141201,38.03,38.67,37.84,38.67,0,0
20141202,38.58,39.5,38.58,38.86,0,0
20141203,40.15,41.35,40.15,41.35,0,0
20141204,42.55,42.55,41.9,42.46,0,0
20141205,42.46,43.57,40.61,41.63,0,0
20141208,40.61,40.61,37.84,40.52,0,0
20141209,39.78,39.97,39.69,39.87,0,0
20141210,39.23,39.23,37.38,39.14,0,0
20141211,37.84,38.77,37.84,38.77,0,0
20141212,37.94,38.77,37.75,38.77,0,0
20141215,39.14,39.14,39.14,39.14,0,0
20141216,38.3,38.3,37.38,37.38,0,0
20141217,37.38,37.38,36.92,36.92,0,0
20141218,36.92,37.66,36.92,36.92,0,0
20141219,37.66,37.66,37.1,37.1,0,0
20141222,37.47,37.47,35.72,36.55,0,0
20141223,36.55,36.55,34.06,36,0,0
20141229,35.63,36.83,35.63,36.37,0,0
20141230,36.92,37.1,36.64,37.1,0,0
